Distance,Time,Velocity
0.0,0.02819347381591797,0.0
2.020999872635105e-06,0.062378644943237305,3.2398906299970995e-05
0.0011516360338592697,0.09794163703918457,0.011758390697497963
0.0034614808762135564,0.13541030883789062,0.025562905113506115
0.006859653724530729,0.16812705993652344,0.040800414443222875
0.010259125253933155,0.20252537727355957,0.050655998729856565
0.01365979542382466,0.2364950180053711,0.05775933691556424
0.01706166712320936,0.27145862579345703,0.06285181424365921
0.020464450187976737,0.30791211128234863,0.06646198521633105
0.023867993667888117,0.34340524673461914,0.06950387012092775
0.02727139377762113,0.3775975704193115,0.07222343551452677
0.030674405231887376,0.4115262031555176,0.07453815819425569
0.03407677029807972,0.446256160736084,0.07636145625837697
0.037478483604077184,0.48241710662841797,0.07768896062996582
0.04087954485862444,0.5169820785522461,0.0790734274060395
0.04427996053926619,0.5493552684783936,0.08060350574576813
0.04767973034842939,0.5847666263580322,0.08153633979658195
0.051078860753341795,0.6182668209075928,0.08261620877271066
0.05447735837510632,0.652259349822998,0.08352100800071276
0.05787522773889555,0.686556339263916,0.08429785645988769
0.06127256511932692,0.7208030223846436,0.08500597696804595
0.06466949769124436,0.7574620246887207,0.08537655431349224
0.06806673540126108,0.7913632392883301,0.08601200058581598
0.07146445750608939,0.8243613243103027,0.08669069666250988
0.07486302592996183,0.8582174777984619,0.08723083352019798
0.078262503059431,0.8918402194976807,0.08775395115451455
0.081663134961848,0.9263789653778076,0.08815305400262743
0.08506456412163657,0.9605686664581299,0.088556463574116
0.08846644452229305,0.9974308013916016,0.08869431784026109
0.09186884713961779,1.0299649238586426,0.08919609300425684
0.09527098764871625,1.0639607906341553,0.08954370169217574
0.09867285561137648,1.09895920753479,0.08978755074332709
0.10207408324543524,1.1329209804534912,0.09009814894996164
0.10547466989740369,1.1671597957611084,0.09036866269765859
0.10887461076768362,1.2033638954162598,0.09047521799714826
0.11227390760001825,1.2380955219268799,0.09068275073419495
0.11567264322708745,1.2717082500457764,0.09095847512424622
0.1190708840126731,1.3050920963287354,0.09123561804383246
0.12246891884419325,1.3396103382110596,0.09142130017281033
0.1258672989991143,1.37361741065979,0.09163199157373554
0.1292657471267338,1.408480167388916,0.09177676059604775
0.1326649591147903,1.444525957107544,0.09183978900623761
0.13606480878151778,1.4783921241760254,0.09203566939816649
0.13946520413203145,1.512174367904663,0.09222825561134244
0.14286599809545392,1.546626329421997,0.09237266647907487
0.1462673173986185,1.5801427364349365,0.09256588916050823
0.1496688399150586,1.6147034168243408,0.09269122636119416
0.15307009805769656,1.6492292881011963,0.09281310922748069
0.15647119002418727,1.6838231086730957,0.09292614480596562
0.15987192320815366,1.7181780338287354,0.09304735601345104
0.16327211887324444,1.7524423599243164,0.09316832473753701
0.16667183717487974,1.7868561744689941,0.09327658238884848
0.17007113661283035,1.8209621906280518,0.09339630305787548
0.1734701015060284,1.8561441898345947,0.09345723379469066
0.17686900733670208,1.8905868530273438,0.09355243693432369
0.18026788568322863,1.9244933128356934,0.09367031024784822
0.18366691239068103,1.9599015712738037,0.09371231447674688
0.18706641679129843,1.9927380084991455,0.09387406472574372
0.1904660220925778,2.026698112487793,0.09397848693843149
0.1938663039918665,2.0618174076080322,0.0940269023224398
0.19726655947261035,2.0961239337921143,0.09411016032612818
0.20066743121414263,2.1322739124298096,0.0941095935397316
0.2040681140148149,2.1645822525024414,0.09427598040171252
0.20746909881202327,2.198323965072632,0.0943760347011313
0.2108695909932777,2.232248544692993,0.09446510402912106
0.21427003382058632,2.266193389892578,0.09455063931271246
0.2176702629649301,2.2998881340026855,0.09464384799712
0.22107018845733573,2.3340914249420166,0.09471359437551918
0.2244698273776657,2.3686113357543945,0.09476853546602353
0.22786912787403507,2.403252363204956,0.09481697859235674
0.2312684078462811,2.4380505084991455,0.09485792318086513
0.23466788151850446,2.471665859222412,0.09494320627640629
0.23806746290755557,2.505363702774048,0.09502311486510198
0.24146694764356874,2.540018320083618,0.09506504174962785
0.24486684863430858,2.574108123779297,0.09512686991360561
0.2482669863104131,2.6075847148895264,0.09520955729368556
0.25166728590750104,2.643203020095825,0.09521299877236718
0.2550676589627439,2.678394079208374,0.0952315646688301
0.2584682538462916,2.7111427783966064,0.09533553743678227
0.2618688443516178,2.745344400405884,0.09538651846846681
0.2652694097527002,2.7790329456329346,0.09545385569089904
0.2686697928814625,2.812814712524414,0.0955163494008959
0.27207005006754537,2.8471994400024414,0.095557074873305
0.2754701142807672,2.883009910583496,0.09554948571960144
0.27886998728447304,2.9177801609039307,0.095576079041568
0.28226969525157797,2.950564384460449,0.09566633988337618
0.2856693102942766,2.983886480331421,0.09573732518890841
0.28906886607181115,3.018519878387451,0.09576510267218682
0.29246845292152646,3.052105665206909,0.09582514008462395
0.29586808028090045,3.08612322807312,0.0958704686804199
0.29926783525493567,3.120429039001465,0.09590598969387273
0.3026677429222665,3.1565608978271484,0.09588528551139659
0.3060677650720591,3.188204526901245,0.09600004092884834
0.30946793937136574,3.22249174118042,0.09603374165918128
0.31286821360546424,3.2580292224884033,0.09602989790450778
0.3162685420195101,3.2910287380218506,0.09610020671214517
0.31966889272861454,3.325124502182007,0.09613742057443023
0.32306921735025196,3.3593828678131104,0.09616921621100111
0.32646945363246244,3.3933467864990234,0.09620869135196371
0.3298695945010598,3.42785382270813,0.09623210660729131
0.33326961382233417,3.462346315383911,0.09625542434664877
0.3366695246275704,3.4962055683135986,0.09629568915478948
0.34006934388864946,3.5304269790649414,0.09632527337492737
0.3434690895186395,3.5649220943450928,0.0963468711037114
0.3468688177632973,3.5991318225860596,0.09637569137827912
0.3502685448344897,3.6345133781433105,0.09637288637892544
0.3536683245415938,3.6676995754241943,0.09642783365120347
0.3570681670550499,3.7010810375213623,0.09647672218876373
0.3604681004293199,3.7361557483673096,0.0964810154359447
0.36386812626335346,3.7704622745513916,0.09650491100766852
0.3672682380796268,3.8032820224761963,0.09656613312112733
0.3706684076788678,3.837367057800293,0.09659446232160739
0.3740686261587597,3.8740177154541016,0.09655831584521095
0.3774688376108118,3.9073548316955566,0.09660469905340362
0.3808690355224263,3.9404983520507812,0.09665504245781703
0.3842691775553075,3.974534034729004,0.09668282475319352
0.38766926505938276,4.009307861328125,0.09669231659625242
0.3910692575224286,4.043003559112549,0.0967274086714555
0.3944691866287211,4.077162504196167,0.09675091101292581
0.3978690628876645,4.111260890960693,0.09677543542966278
0.4012689035028466,4.147237777709961,0.09675570223138277
0.40466872930001035,4.180565118789673,0.09679761415058813
0.4080685745066071,4.213819265365601,0.09684054982154108
0.4114684391522373,4.248265027999878,0.09685564258357027
0.4148683637250472,4.282681703567505,0.0968711644807642
0.41826832761738086,4.316319227218628,0.09690393726668516
0.4216683590154768,4.3507020473480225,0.09691961307083886
0.42506842495968694,4.38797926902771,0.09687111057246944
0.4284685435413411,4.42011833190918,0.0969359893485641
0.4318686683410138,4.454585552215576,0.09694923652913465
0.4352688123418836,4.488976001739502,0.09696394281751887
0.4386689370711756,4.523334503173828,0.09697910618004939
0.4420690287491066,4.5569188594818115,0.09701051135226409
0.4454690801586519,4.591964244842529,0.09701057247102503
0.448869095864988,4.627284049987793,0.09700487175974688
0.4522690766349355,4.660528898239136,0.09704243585010577
0.4556690186254227,4.695093154907227,0.0970521784321075
0.45906892300670454,4.728693008422852,0.09708156613021841
0.46246880540622665,4.7633349895477295,0.09708928858059115
0.46586868258024683,4.797001361846924,0.09711664588747997
0.4692685694585157,4.830862998962402,0.09713969730859841
0.47266849030707825,4.866537094116211,0.09712624832934051
0.4760684322261353,4.8996827602386475,0.09716311351613867
0.4794684200603239,4.933201313018799,0.09719214555363856
0.4828684233354398,4.967081546783447,0.09721370965776328
0.4862684716080517,5.001619577407837,0.09722220254505391
0.4896685410605197,5.035376071929932,0.09724567421889548
0.4930686363867,5.070019960403442,0.0972518136491645
0.49646873182814893,5.107286691665649,0.09720792307162116
0.4998688125372504,5.139975070953369,0.09725121340803197
0.5032688878780422,5.17321515083313,0.09728357959304909
0.5066689095028045,5.207652807235718,0.097293143044947
0.51006891791764,5.241706609725952,0.09730970386080183
0.5134688881901115,5.275489568710327,0.09733104037122316
0.5168688359492887,5.30954647064209,0.09734707828760808
0.5202687710143916,5.344087839126587,0.09735408299340789
0.5236686925566886,5.380162715911865,0.097333244403173
0.5270686265274773,5.413613557815552,0.09735985417107514
0.5304685631208805,5.448156118392944,0.09736662305436176
0.5338685340537743,5.483504772186279,0.09735899871222696
0.5372685396535183,5.517604827880859,0.09737350832713883
0.5406685599218317,5.552520513534546,0.0973735366855332
0.5440685973180125,5.587644100189209,0.09736994474998671
0.54746863711911,5.620814561843872,0.09740023106891404
0.5508686833672534,5.655118465423584,0.09741063546862264
0.5542687150322199,5.688992977142334,0.09742826494235493
0.5576687405302327,5.722884178161621,0.09744540046053742
0.5610687707316817,5.7567853927612305,0.09746216550597628
0.5644687877994233,5.790120601654053,0.09748826089013977
0.567868790903489,5.8258936405181885,0.09747325061927829
0.5712687934039051,5.859489679336548,0.09749463258182377
0.5746687967508528,5.893961191177368,0.09750128616575737
0.5780687856379729,5.926564931869507,0.09753858977052056
0.5814687619214224,5.960675001144409,0.09755082466495561
0.5848687422560022,5.995100021362305,0.09755779556169919
0.5882687176468853,6.029032945632935,0.0975726493704088
0.5916686787994266,6.063596725463867,0.0975771815949986
0.5950686341514321,6.099819183349609,0.09755512684306496
0.5984685830235251,6.134272336959839,0.09756146290044365
0.601868552269875,6.167328834533691,0.097589826717158
0.6052685264087191,6.201221227645874,0.09760473045379368
0.6086685184400823,6.235773086547852,0.09760915126195581
0.6120685142213189,6.270283222198486,0.09761417348014394
0.6154685345839052,6.304628610610962,0.09762169551875666
0.6188685521607704,6.340641260147095,0.09760346418753447
0.6222685959168324,6.373397350311279,0.0976353052719113
0.6256686235583486,6.406825065612793,0.09765657984271893
0.6290686452467998,6.441262722015381,0.09766231752925195
0.6324686619271731,6.475627183914185,0.09766909736531161
0.6358686622405474,6.509022235870361,0.09769035028584773
0.6392686683785004,6.545663118362427,0.09766293449859524
0.6426686647136648,6.579347133636475,0.09767970159654048
0.6460686469539286,6.612772703170776,0.09770011399970596
0.6494686232809925,6.646075963973999,0.09772211855560027
0.6528686058617559,6.679985046386719,0.09773504002301622
0.656268571104003,6.7130348682403564,0.09776033999299431
0.6596685305549991,6.748424291610718,0.0977514901330469
0.6630685151103426,6.7829413414001465,0.0977553072828831
0.6664685033576583,6.81748104095459,0.09775876153582068
0.6698685097021249,6.850812911987305,0.09777941950947357
0.6732685301371664,6.887164831161499,0.09775699386355789
0.676668541958396,6.919551134109497,0.09779081458373802
0.6800685758670727,6.956364870071411,0.09776206230828306
0.6834685919126424,6.98931884765625,0.09778758228233243
0.6868685971528412,7.024259328842163,0.09778519912163615
0.6902685937485739,7.060690641403198,0.097762191944922
0.6936685857938145,7.095990419387817,0.09775500596767413
0.6970685714178981,7.129000186920166,0.09777928926090296
0.7004685468341498,7.163952827453613,0.09777682289445329
0.7038685146921285,7.198002815246582,0.09778664064998925
0.7072684993434956,7.232281923294067,0.09779327006950497
0.7106684846753031,7.266168117523193,0.09780512550507123
0.7140684945758577,7.300869703292847,0.09780594964649181
0.7174685124694107,7.337742805480957,0.09777782234796982
0.7208685258818911,7.370342493057251,0.097806652344981
0.7242685456807224,7.404865980148315,0.09780981149725221
0.7276685572170195,7.439332962036133,0.09781368315283173
0.7310685584388568,7.47517466545105,0.09779952859399096
0.7344685493496762,7.510908603668213,0.09778691075950159
0.7378685294987315,7.54468560218811,0.09779977170748305
0.7412685011515102,7.580127477645874,0.09779103363862195
0.7446684873442011,7.613702297210693,0.09780635731147684
0.7480684744310535,7.649131774902344,0.09779782809933407
0.7514684815825877,7.683718919754028,0.09780010037205314
0.7548684941986885,7.718051910400391,0.09780557360355044
0.7582685094474484,7.752289295196533,0.0978122049595448
0.7616685176013356,7.785887718200684,0.0978268047483938
0.7650685208276131,7.820565700531006,0.09782777232798721
0.7684685150537462,7.854624271392822,0.0978364449401572
0.7718684990191933,7.8924219608306885,0.09779868623977539
0.7752684737316629,7.924992322921753,0.09782576968425884
0.7786684698092722,7.958920478820801,0.09783594042450343
0.7820684650933843,7.993021249771118,0.09784391166428827
0.785468478784958,8.026896715164185,0.09785456405600353
0.7888684831548277,8.061538457870483,0.09785582333663062
0.792268486852531,8.09586477279663,0.09786088442517923
0.7956684815473726,8.132951259613037,0.09783268780897995
0.7990684659542722,8.16529631614685,0.09786153925291315
0.8024684536269275,8.199027061462402,0.09787361934670782
0.8058684602599354,8.233154058456421,0.0978808916410611
0.8092684687436389,8.26692795753479,0.09789228512703332
0.8126684786048283,8.301286458969116,0.09789669138893303
0.8160684876292982,8.335484027862549,0.0979029513944808
0.8194684915141028,8.369255304336548,0.09791414668512902
0.8228684863729722,8.403953552246094,0.09791444958106023
0.8262684709416206,8.436668157577515,0.09793777063514057
0.8296684450245748,8.471311807632446,0.09793860311894832
0.8330684281615609,8.506027936935425,0.09793859535120468
0.8364684189505698,8.541274785995483,0.09793250304065468
0.8398684350181416,8.57508897781372,0.09794282452241936
0.843268439960266,8.609013557434082,0.0979518076414323
0.8466684666048458,8.643941879272461,0.09794934746554633
0.8500684738628381,8.677950143814087,0.09795728942609717
0.8534684724877023,8.711684465408325,0.09796824895077273
0.8568684665728976,8.746012449264526,0.09797247277471618
0.860268454252072,8.77926230430603,0.09798869477110049
0.8636684317430341,8.813202857971191,0.09799711247561724
0.8670684019261276,8.84747576713562,0.0980017831918676
0.8704684005177751,8.884007930755615,0.09798149746178117
0.8738683996131937,8.916817665100098,0.09800227305683994
0.8772684117823982,8.95105266571045,0.09800728970605034
0.880668437882425,8.98540210723877,0.09801102136241023
0.8840684488634292,9.020163536071777,0.09801024619210344
0.887468449295107,9.054100513458252,0.09801840038951973
0.8908684392471937,9.088406085968018,0.09802251691004917
0.894268423526655,9.124157667160034,0.09801106646209491
0.8976684029586571,9.156349658966064,0.09803780287919038
0.9010683897239323,9.189903497695923,0.09804982064826324
0.904468397782422,9.224149942398071,0.09805439020728675
0.907868394505685,9.258919954299927,0.09805337976640166
0.911268414596821,9.292845010757446,0.09806129485017041
0.9146684153831073,9.327518701553345,0.0980612791728613
0.9180684056944575,9.36396312713623,0.09804271901006825
0.9214683903047183,9.39643120765686,0.09806578369390309
0.9248683862099254,9.429922819137573,0.09807804411006946
0.9282683740574463,9.463701725006104,0.0980872391196213
0.9316683865663604,9.49657130241394,0.09810576437514232
0.9350683967820437,9.530255556106567,0.09811577363031919
0.9384684127251802,9.564710855484009,0.09811780271299067
0.9418684137238871,9.599309206008911,0.09811835346800815
0.9452684042433563,9.635367155075073,0.0981040357912538
0.9486683890912618,9.669192790985107,0.09811247015115214
0.9520683690975027,9.70373797416687,0.09811356939275187
0.9554683564480965,9.738129377365112,0.09811621097055312
0.9588683651160897,9.770751953125,0.09813659887347902
0.9622683624643299,9.803759098052979,0.09815299956273262
0.9656683832193955,9.837791681289673,0.09815905992967748
0.9690683846884485,9.872359991073608,0.09815974960036515
0.972468375698725,9.908278703689575,0.09814705508198958
0.9758683610481995,9.9419424533844,0.09815670988077366
0.9792683516202949,9.975523948669434,0.09816710948309765
0.9826683403585018,10.009369850158691,0.09817484567651602
0.9860683536624298,10.044073820114136,0.0981741444081924
0.9894683647010609,10.079102993011475,0.09817028017147224
0.9928683814714131,10.115494966506958,0.09815321788591294
0.9962683833009572,10.149099349975586,0.09816323093766481
0.9996683746573638,10.183166027069092,0.09816872002283236
1.0030683603248747,10.217466115951538,0.09817192921823165
1.006468341133648,10.251649618148804,0.09817623295980256
1.0098683233214945,10.286170721054077,0.09817728586348098
1.0132683194154568,10.321912050247192,0.0981667267152495
1.0166683188139445,10.355701208114624,0.09817474436374171
1.0200683403120263,10.38895034790039,0.09818781553019766
1.0234683562523295,10.423174381256104,0.09819161790987811
1.026868371659627,10.457751274108887,0.09819208209722192
1.030268376695684,10.492074966430664,0.09819491187320162
1.0336683713957044,10.525741577148438,0.09820385231951884
1.037068355319365,10.559046030044556,0.09821610326998345
1.0404683307129758,10.59393572807312,0.09821357778826374
1.0438683131177346,10.628934383392334,0.09821006278378899
1.0472682948247174,10.662141799926758,0.0982230694804595
1.0506683029837818,10.695822715759277,0.09823164901898776
1.0540683144876122,10.729514837265015,0.09824007240538915
1.0574683273585315,10.763794660568237,0.09824307883096556
1.060868339396472,10.797886371612549,0.09824777765632689
1.0642683463121283,10.831789255142212,0.09825415923845496
1.0676683442185628,10.867572546005249,0.09824349823282488
1.07106833185047,10.902929067611694,0.09823675135447701
1.0744683090051916,10.936266422271729,0.09824818338523966
1.0778682835749758,10.971664190292358,0.09824109313595882
1.0812682769587636,11.006895542144775,0.0982355354258291
1.0846682844497624,11.043046474456787,0.0982218346140862
1.0880682924137504,11.076658010482788,0.09823073813274892
1.0914683160523322,11.110288143157959,0.09823942475555779
1.0948683267248942,11.143271446228027,0.09825376075672146
1.0982683285318855,11.176865100860596,0.09826264508169837
1.101668325771357,11.210904598236084,0.09826756762738778
1.1050683165717428,11.245757341384888,0.09826535314834174
1.108468297143934,11.283136367797852,0.09824115042228064
1.1118682701389824,11.31667685508728,0.09825042142465656
1.1152682599064974,11.351520776748657,0.09824835648373244
1.1186682503325611,11.385866165161133,0.09825060597985079
1.122068265300519,11.420282363891602,0.09825223488766353
1.1254682779893475,11.454499959945679,0.09825555737264019
1.1288682963662335,11.488664150238037,0.0982593173239244
1.1322682997874098,11.52384614944458,0.09825437489392222
1.1356682927141186,11.556996583938599,0.09826673257759892
1.139068279932771,11.591725826263428,0.09826563334960689
1.1424682622840738,11.625336170196533,0.09827399789203341
1.1458682460181682,11.659921646118164,0.0982740948692097
1.1492682436459327,11.694270849227905,0.09827617800743954
1.1526682445923806,11.728522777557373,0.09827906433349143
1.1560682676584393,11.762403964996338,0.09828503349304916
1.1594682714100293,11.797263622283936,0.09828281443333192
1.1628682646874204,11.832722187042236,0.09827563313882691
1.1662682522856698,11.86542010307312,0.09829135775678172
1.1696682350370007,11.898727655410767,0.09830195873969026
1.1730682251282571,11.932682514190674,0.09830716804316315
