Distance,Time,Velocity
6.502495129668461e-07,1.0925865173339844,5.951469312961294e-07
1.668111116737004e-06,1.127415657043457,1.4795883898858303e-06
0.001158003128174177,1.1634876728057861,0.000995286117111681
0.003470143236005573,1.1985666751861572,0.0028952442178209253
0.006869725723271292,1.233966588973999,0.005567189407440305
0.010269540317323068,1.2701194286346436,0.008085491872494736
0.013669717123976547,1.3071424961090088,0.01045770997780839
0.017070261770130178,1.343012809753418,0.012710423643140336
0.02047115527363534,1.3780043125152588,0.014855653997388097
0.023872255303625575,1.4155056476593018,0.016864825190278147
0.0272732336143958,1.4508183002471924,0.018798517781136996
0.030674213181770514,1.489171028137207,0.020598180197032613
0.03407505980874992,1.524458646774292,0.02235223623864885
0.03747532421524533,1.5600602626800537,0.024021715770688144
0.040875463318911634,1.5948610305786133,0.025629482779500903
0.0442752852055333,1.6302785873413086,0.027158109999922367
0.047674717695019665,1.66690993309021,0.028600656069424
0.05107391267319367,1.7042043209075928,0.029969359921581288
0.05447297320063956,1.7385342121124268,0.031332701318803224
0.057872061100268546,1.776904582977295,0.03256903136762748
0.06127126565946959,1.8132102489471436,0.03379159460136919
0.06467064860074549,1.8482704162597656,0.03498981968862307
0.06807027065017651,1.8846051692962646,0.03611911489959184
0.07147017547548894,1.923769474029541,0.03715111214743781
0.07487042321396663,1.956803321838379,0.03826159858704007
0.07827093981893714,1.9907009601593018,0.03931828104039979
0.08167143156496431,2.0277764797210693,0.040276348198001896
0.08507207241668123,2.062267541885376,0.041251714769707445
0.08847294428641435,2.095763921737671,0.04221512898888838
0.0918734313612395,2.130152702331543,0.04312997432563408
0.09527399030166037,2.1645541191101074,0.04401552701340147
0.09867440396282699,2.1985490322113037,0.044881602601139235
0.10207434513380462,2.2354960441589355,0.045660713827032615
0.10547432961758907,2.2692995071411133,0.04647880514920073
0.10887387859483674,2.3033554553985596,0.04726751068301693
0.11227349595257585,2.338099241256714,0.048019131939082936
0.11567293529015708,2.372314691543579,0.048759524064192726
0.11907242660672568,2.4069783687591553,0.04946967041839676
0.12247205993217151,2.4442410469055176,0.050106375591402824
0.12587178765794219,2.477661371231079,0.0508026597659712
0.1292716724899642,2.5119998455047607,0.05146165622633165
0.1326717612144632,2.5464980602264404,0.05209969066407446
0.13607200076537462,2.580612897872925,0.05272855951294835
0.13947238124841596,2.615112543106079,0.053333223312354565
0.14287278635272266,2.6518521308898926,0.05387660370971675
0.14627324170692044,2.6852126121520996,0.0544736163702463
0.14967361006221966,2.7208731174468994,0.055009404555646534
0.15307393405306446,2.755643367767334,0.05554925424805148
0.1564740575990771,2.789762258529663,0.05608867104021485
0.15987408179017162,2.82696270942688,0.05655330410162483
0.16327392975417018,2.861952543258667,0.0570498382786822
0.16667368146766243,2.895704984664917,0.05755893032968946
0.17007339679279296,2.9296212196350098,0.05805303281288417
0.17347304212559636,2.963576555252075,0.05853502985039006
0.1768727105615427,2.9982919692993164,0.05899115642259377
0.18027246164391206,3.0326716899871826,0.059443447913965906
0.18367230448947333,3.0685791969299316,0.05985581361994332
0.18707223626502076,3.1024839878082275,0.06029756704632642
0.1904723010459632,3.1368837356567383,0.06072022972381088
0.19387247090638668,3.171513080596924,0.06112933037939643
0.1972726960333405,3.205894708633423,0.06153436527471982
0.20067297723065408,3.2429990768432617,0.061878826504628344
0.2040732647161526,3.274470806121826,0.06232251768274281
0.20747349534398063,3.3095598220825195,0.06268915097398942
0.2108736711508987,3.3458781242370605,0.06302491104603007
0.2142737562133931,3.379763603210449,0.06339903655091549
0.2176737578283823,3.415069818496704,0.06373918232927991
0.2210736889257969,3.4521641731262207,0.06403915857964436
0.22447353119621488,3.484731435775757,0.06441630734916118
0.22787334261508221,3.5191633701324463,0.06475213527995605
0.23127312223858285,3.5534517765045166,0.06508407508658613
0.23467291811299684,3.588167190551758,0.06540189061728499
0.2380727481991095,3.622347354888916,0.0657233348640057
0.24147265260389814,3.657193422317505,0.0660267655329208
0.24487262384049202,3.6924872398376465,0.06631644415682766
0.24827267906057313,3.7261905670166016,0.06662908796405285
0.2516727888028146,3.7607595920562744,0.0669207330706314
0.2550729523500085,3.7948203086853027,0.06721608181715916
0.25847311804667567,3.8298768997192383,0.0674886229543367
0.26187329003159415,3.867291212081909,0.06771491353262167
0.26527341321495557,3.901750087738037,0.0679883147945907
0.26867351096283015,3.9358160495758057,0.06826373681559311
0.2720735405557445,3.969284772872925,0.0685447268523444
0.2754735313951671,4.00386643409729,0.06880187836667315
0.2788734561041599,4.037943124771118,0.06906324519366955
0.28227335653639646,4.076069593429565,0.06925135846340995
0.285673216787261,4.108605146408081,0.06953046267709828
0.28907308192960574,4.143551826477051,0.06976456287633374
0.29247294861839657,4.177215576171875,0.07001624486099123
0.2958728629259981,4.211512804031372,0.07025334522140851
0.29927282312240805,4.24523138999939,0.07049623345088171
0.3026728417868609,4.278902053833008,0.07073609958323979
0.30607289668686266,4.31638240814209,0.0709095876467086
0.3094729981413661,4.349725723266602,0.07114770397728776
0.31287311001207524,4.384010553359985,0.07136686971984672
0.31627323057571655,4.418187379837036,0.07158438594503029
0.31967333076870197,4.452807188034058,0.07179141545309976
0.3230734135159594,4.48712944984436,0.07200002075428545
0.3264734489358682,4.523825168609619,0.07216756544908844
0.32987346724547095,4.55761456489563,0.07237853542646494
0.3332734449422274,4.592702865600586,0.07256586256394912
0.33667339547023634,4.627554416656494,0.07275406514041384
0.34007331984213307,4.661842107772827,0.07294827065788409
0.34347321765615624,4.699512958526611,0.07308698171221593
0.346873128317548,4.73211932182312,0.07330185583399658
0.35027303574195434,4.76630163192749,0.07348948152916292
0.353672963177957,4.801223993301392,0.07366308334528802
0.35707293835746,4.835227012634277,0.07384822624138247
0.36047295880485114,4.869945764541626,0.0740199123837224
0.36387300470521294,4.907891273498535,0.07414039644073658
0.36727307529694003,4.9407007694244385,0.07433623132366406
0.37067315900778997,4.974646806716919,0.07451245754920648
0.37407323949053073,5.009349584579468,0.07467501183029014
0.37747331554062546,5.044234752655029,0.07483262259789608
0.38087335589518306,5.078310489654541,0.07500001362088683
0.3842733794880196,5.116042375564575,0.07511145359612341
0.3876733561507944,5.149538516998291,0.07528312583178277
0.3910733158804446,5.184022665023804,0.07543819561573017
0.3944732567480914,5.218634366989136,0.07558936476626178
0.3978732093095915,5.252978324890137,0.07574240453731795
0.40127316795712814,5.287604570388794,0.07588940561181616
0.40467312952983725,5.32457160949707,0.07600106810622093
0.4080731011712323,5.3596179485321045,0.07613846828074669
0.41147308685612527,5.39382004737854,0.07628602423547778
0.4148730731987627,5.4289000034332275,0.07641936173744178
0.4182730748654528,5.462236642837524,0.07657542179427952
0.42167309697130245,5.4963414669036865,0.07671886827090606
0.4250731130384299,5.532787561416626,0.07682801993026338
0.4284731388128245,5.566915273666382,0.0769677851645533
0.43187317859715507,5.601423740386963,0.0771006084548283
0.4352732242092066,5.635773420333862,0.0772339822319225
0.4386732669197675,5.6700966358184814,0.0773661006319771
0.44207331124608173,5.704375505447388,0.07749723187471166
0.4454733459251094,5.740371942520142,0.07760356826800624
0.4488733569709443,5.773624897003174,0.07774550044010203
0.4522733622791894,5.8083155155181885,0.07786652792377445
0.45567333803601673,5.842545509338379,0.07799226164480798
0.4590733189507895,5.876221656799316,0.0781238941896619
0.46247328010473593,5.91050910949707,0.07824592967154535
0.4658732478461842,5.94697380065918,0.07833786787400097
0.4692732208231703,5.980618476867676,0.07846566749547117
0.47267320292338605,6.015020370483398,0.0785821449986876
0.4760732012184922,6.0484232902526855,0.0787102982666088
0.4794732000790121,6.083289384841919,0.07881808175585778
0.48287319811351836,6.116965055465698,0.0789399961803045
0.48627321060563466,6.151078701019287,0.07905494861007956
0.4896732356901392,6.18874192237854,0.07912322760131213
0.49307325214117614,6.220603704452515,0.0792645337281733
0.4964732875687461,6.255840301513672,0.0793615667344671
0.4998733313503052,6.29037880897522,0.0794663320811582
0.5032733500047314,6.324764251708984,0.07957187493095008
0.5066733652197656,6.359679460525513,0.07966963875533095
0.510073372076509,6.396848440170288,0.07973822998109528
0.5134733623219181,6.430481910705566,0.07984990385667358
0.5168733431474739,6.465805530548096,0.079939512672547
0.5202733100732323,6.4992146492004395,0.08005171980852156
0.5236732921500061,6.533984184265137,0.0801460911722275
0.5270732848060689,6.571083068847656,0.08021102142275909
0.5304732879743312,6.604546070098877,0.08031941670843543
0.5338732968573829,6.638646364212036,0.08041899923083946
0.5372733106202414,6.6723692417144775,0.08052211907897772
0.5406733333327466,6.70727014541626,0.08061004277608262
0.5440733619487325,6.741425275802612,0.08070598422289221
0.5474733648950715,6.778706312179565,0.0807636943809477
0.5508733687374741,6.812616348266602,0.0808607648774524
0.5542733525948278,6.846522092819214,0.08095692164291153
0.5576733310549209,6.881295442581177,0.08104191074315178
0.5610733204217272,6.915432929992676,0.0811335061885014
0.564473320130502,6.9499382972717285,0.0812199038302386
0.5678733306297595,6.987626075744629,0.08126841998614596
0.5712733496966346,7.020017862319946,0.08137776297734982
0.574673373236057,7.054059267044067,0.08146704634604922
0.578073382524933,7.0878400802612305,0.08155846858548584
0.581473377638643,7.122251987457275,0.08164178670772299
0.5848733735627709,7.156466484069824,0.08172655805273306
0.5882733511263389,7.191100835800171,0.08180574359320333
0.5916733380430641,7.228018283843994,0.08185830677345786
0.5950733256650717,7.261914491653442,0.0819444137422749
0.598473322307513,7.296561241149902,0.08202128407178236
0.6018733292492796,7.330432653427124,0.0821061126546046
0.6052733466907635,7.364614725112915,0.08218669533747855
0.6086733745299963,7.399182558059692,0.08226224582970829
0.6120733962951195,7.436656951904297,0.08230491203959414
0.6154734147618134,7.4698545932769775,0.08239429657918002
0.6188734079382271,7.504504680633545,0.08246692277177453
0.6222734006075207,7.540304899215698,0.08252629156577557
0.6256733801689727,7.5746166706085205,0.08260132589900528
0.6290733727685207,7.6133363246917725,0.08262781859883077
0.6324733699573288,7.647176265716553,0.08270678587504286
0.6358733736051706,7.681872367858887,0.08277583161439625
0.6392733875062995,7.716003656387329,0.08285032200277759
0.64267340900645,7.749080181121826,0.08293544446373387
0.6460734137588406,7.7875189781188965,0.0829626759914365
0.6494734178757542,7.822307586669922,0.08302836607736172
0.652873400591842,7.856973171234131,0.08309477280412962
0.6562733957089266,7.891690731048584,0.0831600499911793
0.6596733926265884,7.925297498703003,0.08323642017659852
0.663073395998111,7.959702491760254,0.0833037914023185
0.6664734096338668,7.997005939483643,0.08334036696700269
0.6698734306270544,8.02954888343811,0.08342603555334811
0.6732734233091312,8.064359188079834,0.08348752921426372
0.6766734272867356,8.098675966262817,0.08355358704380793
0.6800734097521347,8.132495403289795,0.08362419848119781
0.6834734046292863,8.167153358459473,0.08368563373691887
0.6868734012888494,8.204061269760132,0.08372358258959371
0.6902734043829652,8.237415313720703,0.08379732939204934
0.6936734177182613,8.271821022033691,0.083859819484793
0.69707343863915,8.306272268295288,0.08392133271381576
0.7004734428094284,8.339579582214355,0.0839938555539794
0.7038734463084421,8.373854398727417,0.08405608848601552
0.7072734283738464,8.41126275062561,0.08408647421235783
0.7106734228205002,8.44438886642456,0.08415924871084324
0.7140734190339758,8.478865146636963,0.08421804176437506
0.7174734216717042,8.512990951538086,0.08427982899970951
0.7208734345473462,8.547017335891724,0.08434210511310919
0.7242734550089135,8.581436157226562,0.0844000283564414
0.727673458716579,8.619480609893799,0.08442196132807875
0.7310734617676669,8.65308165550232,0.08448706378528072
0.7344734434020908,8.68657660484314,0.08455269282867893
0.7378734374289997,8.720964670181274,0.08460915338321881
0.7412734332450761,8.755492687225342,0.08466381730026769
0.7446734355091209,8.789352416992188,0.08472449393080046
0.7480734480368121,8.823462724685669,0.08478229821767189
0.7514734708235131,8.859244585037231,0.084823651002108
0.7548734876916893,8.893595457077026,0.08487832523245738
0.7582734912426649,8.927879810333252,0.08493321005117348
0.7616734736250772,8.961974143981934,0.08498947457202267
0.7650734673639293,8.996450185775757,0.08504170551331271
0.7684734377964789,9.030529975891113,0.08509726891423641
0.7718734275663661,9.06502103805542,0.08514855335977735
0.7752734278529031,9.100736856460571,0.08518798423476447
0.7786734338800804,9.135262727737427,0.08523820902444237
0.782073444802365,9.168915510177612,0.08529617749604668
0.7854734646809536,9.204395771026611,0.08533677649471019
0.7888734947664081,9.24018120765686,0.08537424505405905
0.7922735215368294,9.277409791946411,0.08539813798293042
0.7956735279982851,9.310441732406616,0.08546034128851315
0.7990735203256154,9.34446406364441,0.08551303904463525
0.8024735134559174,9.378612041473389,0.08556420821196993
0.805873488237357,9.41335940361023,0.0856095527308016
0.8092734723726702,9.447506427764893,0.08566000759674842
0.8126734572256923,9.484007358551025,0.08568882609448474
0.8160734511093798,9.51802372932434,0.08573980001700528
0.8194734553057873,9.551511526107788,0.08579515954787527
0.8228734700148407,9.586556911468506,0.08583618473389835
0.826273495133696,9.62106728553772,0.0858816876144023
0.8296735258158104,9.655162811279297,0.08593055777853628
0.8330735362256826,9.692841053009033,0.08594730189731774
0.8364735385298939,9.726428508758545,0.08600007060933604
0.8398735401699501,9.760836601257324,0.08604524125132505
0.8432735172964952,9.7944495677948,0.08609708094973187
0.8466735071108235,9.828768968582153,0.08614237549150167
0.8500735015921393,9.865541458129883,0.08616592461751002
0.8534735025472955,9.89983320236206,0.0862108972041731
0.8568735137774368,9.933191776275635,0.0862636635913934
0.8602735352757296,9.967126607894897,0.08631108734931815
0.8636735508629374,10.001353979110718,0.0863556627099536
0.8670735531402707,10.036249876022339,0.08639417749171441
0.8704735414303336,10.072124481201172,0.08642402534390872
0.8738735327204388,10.108790636062622,0.08644689203503109
0.8772735269270739,10.142295837402344,0.0864965428923795
0.8806735276148564,10.176216840744019,0.08654233114302105
0.884073538570053,10.210379362106323,0.08658576799321542
0.887473557135043,10.244512557983398,0.08662916386816744
0.890873558971887,10.278295516967773,0.08667522328981507
0.8942735601664489,10.313191413879395,0.08671162245305988
0.8976735399551367,10.34863829612732,0.08674315540538945
0.9010735321408999,10.383209705352783,0.08678179076710507
0.9044735261138169,10.417787790298462,0.08682011424307429
0.9078735265239884,10.4525465965271,0.0868566830236024
0.9112735371796237,10.486083269119263,0.08690313759602278
0.9146735580709833,10.523051977157593,0.0869209389116833
0.9180735848384309,10.557025671005249,0.08696328051563895
0.9214735865881626,10.591206550598145,0.08700364610830122
0.9248735803140272,10.625522136688232,0.0870426477321605
0.9282735707274251,10.660349369049072,0.08707721844675614
0.9316735452207601,10.694932699203491,0.08711354913810226
0.9350735326751516,10.732805490493774,0.08712293663603257
0.9384735308129113,10.766186714172363,0.08716860999424486
0.9418735346843227,10.80003833770752,0.08721020289306217
0.9452735434518565,10.83410906791687,0.08724977176490703
0.9486735611851153,10.869290828704834,0.08728017090864405
0.9520735891431643,10.907526969909668,0.08728592574372053
0.955473613788597,10.939771890640259,0.08733944577090054
0.9588736181670378,10.974010229110718,0.08737677459270424
0.9622736084319148,11.008490562438965,0.0874119483478687
0.9656735995350667,11.042469501495361,0.0874508731406771
0.96907357807935,11.076643943786621,0.08748801378805231
0.9724735726936274,11.110752582550049,0.0875254457759182
0.9758735780969108,11.148314714431763,0.08753552470434109
0.9792735921042723,11.182176113128662,0.08757450984469259
0.9826736106176955,11.217243671417236,0.08760383917857248
0.9860736221651628,11.251614332199097,0.08763841285808073
0.9894736257275971,11.286401748657227,0.08766953788839897
0.992873621721822,11.323688268661499,0.08768111574297013
0.9962735982449715,11.356662511825562,0.08772591394765525
0.9996735925932974,11.391733646392822,0.08775429830294906
1.003073597714854,11.426222324371338,0.08778698411769634
1.0064736114170638,11.45973014831543,0.08782699054785462
1.009873629599388,11.493969678878784,0.08786117049317807
1.0132736407865857,11.531728506088257,0.08786832262410797
1.0166736439845068,11.565182209014893,0.08790813889573
1.020073639586792,11.599366426467896,0.08794218598518859
1.0234736156994662,11.633451223373413,0.08797678316157362
1.026873609628058,11.666864156723022,0.08801624805379453
1.0302736143224864,11.702677488327026,0.08803742693500227
1.0336736275920735,11.739258050918579,0.08805272216596262
1.03707364534444,11.772703886032104,0.08809137266884723
1.0404736561169918,11.806981325149536,0.08812359632522872
1.043873658893574,11.84230661392212,0.08814783242196832
1.0472736541003074,11.875975370407104,0.08818422246899685
1.050673629840916,11.910269975662231,0.08821576941479001
1.0540736234209436,11.947275400161743,0.0882271135565079
1.057473627773883,11.980881929397583,0.08826342117429199
1.0608736407289752,12.015782594680786,0.08829001626565786
1.064273658196363,12.049806356430054,0.08832288475975733
1.0676736687142714,12.083651542663574,0.08835687332960995
1.071073671244168,12.118697881698608,0.08838191047420037
1.0744736662305696,12.155705213546753,0.08839254056878064
1.07787364788667,12.18851900100708,0.08843352074174149
1.081273641082,12.22287106513977,0.08846314710508939
1.084673645201338,12.256948947906494,0.0884945878302448
1.0880736579239183,12.291902780532837,0.08851954635104524
1.0914736751553227,12.326191663742065,0.08854914031281305
1.094873685421065,12.363241195678711,0.08855879037640656
1.0982736877068653,12.396015167236328,0.08859893061519411
1.101673682423416,12.429698944091797,0.0886323705327613
1.1050736637910747,12.463670015335083,0.08866358483748457
1.1084736566686137,12.500623226165771,0.08867347144328004
1.1118736604680002,12.536977052688599,0.08868754052872378
1.1152736728457564,12.57242488861084,0.08870792092431311
1.1186736897062526,12.605668544769287,0.08874370175078461
1.1220736995757075,12.639927387237549,0.08877216341516786
1.1254737014583125,12.674514770507812,0.08879816875334469
1.128873695751743,12.710367202758789,0.08881519139012133
1.1322736766840973,12.74777340888977,0.08882128983360313
1.13567366912644,12.780808210372925,0.08885773500651746
1.139073672484587,12.815253734588623,0.0888842075292044
1.1424736844237933,12.849267482757568,0.08891352646809467
1.1458737008567907,12.883409261703491,0.08894180706212225
1.1492737150358614,12.917463541030884,0.08897054064718832
1.1526737294080038,12.955248832702637,0.08897349207977666
1.1560737238181042,12.988502025604248,0.0890074714958765
1.159473704174874,13.022401809692383,0.08903685519148201
1.162873696247842,13.056118488311768,0.08906733630587696
1.1662736992316236,13.090274810791016,0.08909466883538622
1.1696737108281547,13.124919891357422,0.08911854095188564
1.1730737269488398,13.158624649047852,0.08914865787540513
