Distance,Time,Velocity
0.0,0.031624555587768555,0.0
2.140330483363668e-06,0.06570243835449219,3.2576119501314214e-05
0.001151170509921003,0.09963107109069824,0.011554332371605695
0.0034599463879227198,0.13411259651184082,0.025798817396076888
0.006856224906376954,0.18577337265014648,0.036906391957951826
0.010252810996216829,0.24510741233825684,0.04182986919248117
0.013649785607135536,0.2828507423400879,0.04825790978735917
0.017047149260853534,0.31630897521972656,0.05389397897739574
0.02044490210031601,0.34919214248657227,0.058549147053336664
0.023843041363655386,0.3840820789337158,0.06207798455436442
0.027241563664061507,0.41781187057495117,0.06520054977512815
0.03064046729637107,0.4520256519317627,0.06778479753400482
0.03403975045089108,0.4872171878814697,0.0698656601153658
0.03743941039505976,0.5225903987884521,0.07164197903722963
0.04083944228559391,0.5560762882232666,0.07344215739908826
0.04423984417662088,0.594132661819458,0.0744612222481454
0.04764061581033555,0.6281671524047852,0.0758406669752709
0.051041754655208424,0.6668999195098877,0.07653585367459571
0.054443258309787544,0.7019104957580566,0.07756438839255331
0.057845124453751944,0.7347919940948486,0.07872312833920883
0.06124735060155703,0.7695512771606445,0.07958839445700977
0.06464993418847675,0.8034019470214844,0.08047022343941108
0.06805287290368679,0.8383011817932129,0.0811795025245159
0.07145616428918987,0.873638391494751,0.08179146542190299
0.07485980568573176,0.9083447456359863,0.08241342953254818
0.07826379468299002,0.9423263072967529,0.08305381488022445
0.08166820241221968,0.9770886898040771,0.08358320310574421
0.08507254248072142,1.0109789371490479,0.08414867941821348
0.08847644861270222,1.045323371887207,0.08464026634453654
0.09187935295546927,1.0808558464050293,0.08500611183356574
0.0952810068665294,1.1143560409545898,0.08550319948452823
0.09868145816615688,1.1470229625701904,0.08603267884457737
0.10208070747092322,1.1811714172363281,0.08642327945063961
0.10547875465867906,1.215186595916748,0.08680045929827337
0.10887567051573409,1.2491183280944824,0.08716201505250734
0.11227213938165143,1.2840070724487305,0.0874388792637545
0.11566842140798955,1.3171396255493164,0.08781788898025883
0.11906502921051276,1.353822946548462,0.08794726778273784
0.12246205630067844,1.3879892826080322,0.08822982845413058
0.12585947564543284,1.4221155643463135,0.08850158088473291
0.1292572799197174,1.4559910297393799,0.08877615128085936
0.1326554663011228,1.4912595748901367,0.08895531571751733
0.13605403206804587,1.5254790782928467,0.0891877404312244
0.13945297400441026,1.561152458190918,0.08932694130719944
0.14285228811054096,1.5937299728393555,0.08963393457176334
0.14625196992873365,1.6281592845916748,0.08982657367298809
0.1496520099242847,1.6615664958953857,0.09006681965119918
0.15305239916914132,1.69547438621521,0.09027113615723716
0.15645311940088413,1.7301695346832275,0.09042646761753827
0.15985413549943947,1.7646305561065674,0.09058787684836267
0.16325579038212606,1.8010613918304443,0.0906442118645422
0.16665783883944002,1.8344578742980957,0.09084855050335075
0.17006028354620575,1.8677153587341309,0.0910525700562137
0.1734631421502944,1.9015557765960693,0.09122169556383286
0.17686642805606473,1.9361937046051025,0.09134748637773182
0.1802700045006632,1.9700214862823486,0.09150661845869149
0.1836733933026522,2.004659414291382,0.09162324133128524
0.18707601566755894,2.0412185192108154,0.09164918596754994
0.1904777381062261,2.0737667083740234,0.09185109266971202
0.19387840162308806,2.1071503162384033,0.09200976319961439
0.1972778243795768,2.1408863067626953,0.09214773514894731
0.20067621687335407,2.176118850708008,0.09221748931960375
0.20407396453375104,2.2103466987609863,0.09232667646579835
0.20747119838789826,2.24405837059021,0.09245356587285707
0.21086851016852065,2.277963161468506,0.09256888510549165
0.2142660991170413,2.313723087310791,0.09260663053938745
0.2176642227745798,2.3467345237731934,0.09275195833596411
0.22106286106631554,2.3803584575653076,0.09286956775931318
0.22446200418170162,2.4150736331939697,0.09294209546929937
0.2278616505736846,2.4488909244537354,0.09304687615864836
0.23126179459713656,2.483151435852051,0.09313237656719194
0.23466243586623195,2.5173659324645996,0.09321745116193268
0.23806357405575654,2.5536625385284424,0.09322436714482313
0.24146520659046272,2.5867297649383545,0.09334767390988644
0.2448673297678509,2.6201870441436768,0.09345414111376077
0.2482696699572935,2.655062437057495,0.09350803449746416
0.25167196695378113,2.6890692710876465,0.09359073403564182
0.2550738525228676,2.722616672515869,0.09368702362612188
0.2584751559879118,2.7570929527282715,0.09374916276657944
0.2618757171421623,2.7915661334991455,0.09380960529633194
0.2652755186416391,2.826446056365967,0.09385479621808547
0.2686746205336043,2.860682487487793,0.09391976275198237
0.2720731676306375,2.8941826820373535,0.09400690886558419
0.2754714018175498,2.9283154010772705,0.09407162961893012
0.2788695444191651,2.9625847339630127,0.09413048721348294
0.28226786896084316,2.9962761402130127,0.09420622657989595
0.28566660794381177,3.0298850536346436,0.09428298529052338
0.28906587739210976,3.0645527839660645,0.0943256317543365
0.2924656645619155,3.0989902019500732,0.09437450443627679
0.29586594880295763,3.133009672164917,0.09443505758426643
0.2992667356457029,3.166271686553955,0.09451707410851182
0.30266794444310635,3.2005796432495117,0.09456660298439287
0.3060693652248523,3.2354166507720947,0.09459967548594163
0.30947080741170985,3.2693798542022705,0.0946573421298642
0.31287206314370275,3.304166555404663,0.09469016101259616
0.3162729889454257,3.338134288787842,0.09474543609816014
0.31967347868948615,3.3720738887786865,0.09480025919754297
0.3230734928743316,3.405782699584961,0.09486027776044031
0.3264730625789137,3.440499782562256,0.09489117372818963
0.3298722688949626,3.4744725227355957,0.09494168301415735
0.33327123160523897,3.5085158348083496,0.09498923399427772
0.33667010935179154,3.544473171234131,0.09498452748467784
0.34006905153535644,3.578089475631714,0.09504207590429724
0.3434681949685056,3.612288236618042,0.09508327477490369
0.34686762544993316,3.644871234893799,0.09516594773753095
0.35026743859817994,3.679647445678711,0.09519048870008608
0.35366762185691153,3.713155746459961,0.0952471821829963
0.3570681323997402,3.747276782989502,0.09528736548648495
0.36046888897300994,3.7813968658447266,0.0953269127154906
0.36386977217945343,3.8173513412475586,0.09531995869694725
0.3672706460842152,3.8525335788726807,0.09533223749127842
0.3706714043219244,3.8863487243652344,0.095377803334534
0.3740719460922367,3.9200527667999268,0.09542523234900341
0.3774722292785749,3.954195022583008,0.09546120692651063
0.3808722101275352,3.9882302284240723,0.09549905304188891
0.3842719266654687,4.02316689491272,0.09551478641151556
0.38767142533616356,4.0575573444366455,0.09554305519987374
0.39107078616371793,4.092109441757202,0.09556703986777718
0.39447009960630997,4.124761343002319,0.095634648117407
0.3978694533696799,4.1593098640441895,0.09565756492660601
0.40126893444763684,4.1928136348724365,0.09570397575275133
0.4046686216706036,4.226059436798096,0.09575554431321573
0.40806853015811145,4.259763479232788,0.09579605350098154
0.41146866360122997,4.29365348815918,0.09583182824043845
0.41486899274073213,4.327419757843018,0.09586982912596435
0.4182694569546917,4.363236665725708,0.09586219795050327
0.4216699763728859,4.396752834320068,0.09590486257981673
0.4250704891342527,4.431875944137573,0.09591209106304754
0.4284709372722024,4.467074632644653,0.09591756854497273
0.4318712655851057,4.50260853767395,0.09591579236160082
0.4352714192102598,4.539600133895874,0.09588320697239713
0.4386714145874303,4.571751117706299,0.09595260181344187
0.44207123567040413,4.6073198318481445,0.0959497607729731
0.445470919831367,4.64228892326355,0.09595932678791542
0.448870527624346,4.678333759307861,0.0959466662102266
0.4522700947022637,4.713622570037842,0.0959495776299783
0.45566969731440227,4.750778436660767,0.0959147439497692
0.45906938677712816,4.785464763641357,0.09592994817661409
0.4624691820786856,4.820168495178223,0.09594460910262974
0.4658691177825191,4.854437351226807,0.0959676856607873
0.4692691927600169,4.888390302658081,0.09599667041824585
0.4726693896743277,4.9242987632751465,0.09598714708365008
0.4760696778762293,4.9589738845825195,0.09600165053426332
0.47947002953302875,4.994277238845825,0.09600388737006399
0.4828703778423037,5.02860951423645,0.09602463195347616
0.4862706860704309,5.062640905380249,0.09605079545611336
0.4896709047819986,5.097881555557251,0.09605380184798595
0.4930710142002538,5.1347784996032715,0.09602576123553333
0.49647101223238027,5.169331312179565,0.09604163135425949
0.4998708875868185,5.204707622528076,0.09604206880386047
0.5032706875938485,5.239020586013794,0.09606197939694895
0.5066704286121441,5.276751279830933,0.09601938801792034
0.5100701510612418,5.309747695922852,0.09606297328456957
0.5134699014172283,5.344262361526489,0.09607872269028445
0.5168696960616173,5.378359317779541,0.09610174135316181
0.5202695867937761,5.419892311096191,0.09599260592846537
0.523669552246718,5.4559948444366455,0.09598058047666448
0.5270696161711307,5.488639831542969,0.09602918616413579
0.5304697567574543,5.522146224975586,0.09606224376280431
0.533869942753525,5.557298183441162,0.09606645624024167
0.5372701642390063,5.59697961807251,0.09599287488990922
0.5406703822475916,5.630481481552124,0.09602560349750905
0.5440705609020443,5.663881301879883,0.09605966860948575
0.5474706858685175,5.700512170791626,0.09603885922280045
0.5508707400583053,5.732973098754883,0.09608814319710418
0.5542707241589555,5.769281625747681,0.0960727452938517
0.557670629365733,5.805091142654419,0.09606578357884905
0.5610704989317477,5.8380045890808105,0.09610655325299904
0.5644703248310227,5.873329401016235,0.09610738412413153
0.5678701509817909,5.90784764289856,0.09612132629459239
0.5712700041116755,5.942896604537964,0.09612652585533069
0.574669895379559,5.97862434387207,0.0961207566032444
0.5780698482850137,6.013067007064819,0.09613560727093728
0.5814698420782527,6.047915458679199,0.09614384428006531
0.5848699003608685,6.083411693572998,0.0961417589045916
0.588269988329705,6.116042137145996,0.09618475071596165
0.5916701028843987,6.1504082679748535,0.09620013454476219
0.5950702377745147,6.185631275177002,0.0962020222838916
0.5984703753190485,6.220951080322266,0.09620239214098525
0.6018704642405828,6.254394054412842,0.09623161876344005
0.6052705375480352,6.289896249771118,0.09622901769962584
0.6086705640380335,6.323976516723633,0.09624807467713013
0.6120705609631781,6.361422538757324,0.09621598899210104
0.6154705311872561,6.395831108093262,0.09622995366598126
0.6188704611558805,6.429601192474365,0.09625332001621623
0.6222703641546203,6.464428901672363,0.09626068653854906
0.6256702680170032,6.499528884887695,0.0962639414483984
0.6290701884549316,6.534219026565552,0.09627320203032387
0.6324701052544985,6.568227767944336,0.09629235276237129
0.6358700677839997,6.604673862457275,0.09627577092011377
0.6392700437383547,6.63834810256958,0.09629956637719936
0.6426700579029241,6.672873497009277,0.0963108409279695
0.6460701005908426,6.707727909088135,0.0963172790171614
0.6494701593336104,6.742682456970215,0.09632222242087403
0.6528702382467423,6.780231952667236,0.09629025124869267
0.6562703078491924,6.813516616821289,0.09631888270867127
0.6596703824436051,6.847813367843628,0.09633299668202477
0.6630704222181336,6.882031202316284,0.09634806973774895
0.6664704344545999,6.917010307312012,0.09635238417240323
0.669870420229373,6.95369029045105,0.09633308247122435
0.6732703790453577,6.992203950881958,0.0962887215211214
0.6766703407622494,7.02987813949585,0.09625634005809056
0.6800702897076626,7.061967372894287,0.09630040097862157
0.6834702537120837,7.095812082290649,0.09632023026904171
0.686870236373388,7.133539438247681,0.09628743799895698
0.6902702105398664,7.166076898574829,0.09632470043367042
0.6936701946069087,7.2003467082977295,0.09633844350960466
0.6970701928867464,7.235037088394165,0.09634645743626215
0.7004701972042643,7.270515203475952,0.0963439560472107
0.7038701966481049,7.303727865219116,0.09637136126059488
0.707270209156599,7.341489791870117,0.0963387853429725
0.7106702355078572,7.375176906585693,0.09635975441799388
0.7140702623461569,7.409378290176392,0.09637384330786508
0.717470288195207,7.443295955657959,0.09639147663473302
0.720870332968731,7.477877378463745,0.09640039498973793
0.7242703778845512,7.513240814208984,0.09639919653777322
0.7276704153278053,7.549476861953735,0.09638686608802863
0.7310704318418796,7.583081483840942,0.09640809391271128
0.7344704416640907,7.61786413192749,0.09641422174830168
0.737870446409028,7.652728319168091,0.09641926586637797
0.7412704212392404,7.68692684173584,0.09643261039178158
0.7446704012100084,7.722534418106079,0.09642823986178307
0.748070362946296,7.757076740264893,0.09643714868299093
0.7514703295315147,7.792139768600464,0.09643953417771987
0.7548703019918602,7.82664155960083,0.09644881476217236
0.7582702894287742,7.862337827682495,0.09644336150998006
0.7616702737704009,7.89920711517334,0.09642363627956181
0.7650702725314795,7.932504653930664,0.09644750377201187
0.7684702813470764,7.9681055545806885,0.0964432858077915
0.7718702842901097,8.001602172851562,0.09646446644260437
0.7752702969873115,8.036982297897339,0.09646285984605693
0.7786703237508575,8.076409101486206,0.09641293723067694
0.7820703507540469,8.112375736236572,0.09640460158430218
0.7854703902052416,8.145563840866089,0.09642922277087271
0.7888704225341998,8.180322647094727,0.09643512323005624
0.7922704555108263,8.215026617050171,0.0964416175921427
0.7956704607146055,8.249060153961182,0.09645589265493792
0.7990704687787282,8.286898136138916,0.09642576216714982
0.8024704482849205,8.319454908370972,0.09645709449996308
0.8058704300635084,8.353896141052246,0.096466417161131
0.8092703990901094,8.38844919204712,0.09647437572338861
0.8126703674595279,8.426960229873657,0.09643695298081548
0.8160703444193187,8.459989309310913,0.09646233754943002
0.819470332067052,8.494100093841553,0.09647523846124555
0.8228703248270287,8.52912712097168,0.0964776715314431
0.8262703315856244,8.562738180160522,0.0964960406590564
0.829670338928325,8.595939636230469,0.09651886518972298
0.8330703453869696,8.630399227142334,0.09652744021006462
0.8364703662759624,8.66611385345459,0.09652196825714661
0.8398703931507974,8.70085597038269,0.0965273297259117
0.8432704318864293,8.735091924667358,0.09653824357647409
0.846670464459405,8.768536806106567,0.09655778189466781
0.8500704880441208,8.802380323410034,0.09657279699484789
0.8534704969857528,8.836498022079468,0.09658469846914627
0.8568704974611394,8.871614456176758,0.09658563294131356
0.8602704786056345,8.906877517700195,0.09658496784042014
0.8636704606109786,8.941195726394653,0.0965945145414276
0.8670704300809977,8.975660800933838,0.09660240614159425
0.8704704156370442,9.010793209075928,0.09660308426124813
0.873870412000877,9.04578948020935,0.09660521217222189
0.8772704169945766,9.082561492919922,0.09658843682791801
0.8806704265221483,9.115756034851074,0.096609696788198
0.8840704424561926,9.150249242782593,0.09661708867149356
0.8874704685846925,9.184011220932007,0.09663211936871204
0.8908704928155691,9.219075202941895,0.09663339035690736
0.8942704922139401,9.252657413482666,0.09665012463455512
0.8976704835683055,9.288539171218872,0.09664280539934572
0.9010704743253025,9.322342872619629,0.09665708359341828
0.9044704509452656,9.356037139892578,0.09667238783060776
0.9078704437611468,9.389100551605225,0.09669408041496914
0.9112704471421075,9.424622535705566,0.09669039196951626
0.914670461004514,9.45999789237976,0.09668823094995628
0.91807048053304,9.497356653213501,0.09666589494903342
0.9214704948394968,9.529802083969116,0.0966935605503896
0.9248705109801288,9.563111543655396,0.09671229983652446
0.9282705025430871,9.597762107849121,0.09671739016993769
0.9316704861110902,9.632682800292969,0.09671973067386318
0.9350704784920315,9.667518615722656,0.09672290436258282
0.9384704815181533,9.70293140411377,0.09672030466177141
0.9418704950107442,9.737854242324829,0.09672259119642365
0.9452705141445322,9.770586967468262,0.09674654320071716
0.9486705130513918,9.80479121208191,0.09675580973946665
0.9520705039031148,9.83847689628601,0.09677011126209159
0.9554704990447026,9.872134685516357,0.09678458909667187
0.9588704761128216,9.90613603591919,0.096795609573299
0.9622704682801785,9.93984580039978,0.09680939600104017
0.9656704709813839,9.974446773529053,0.09681443922726159
0.9690704841446178,10.009955406188965,0.09681066946067113
0.972470502943022,10.044188261032104,0.0968192229844858
0.9758705265626308,10.077589750289917,0.09683570682509243
0.9792705428254196,10.111279726028442,0.09684931772825775
0.9826705377619586,10.145575523376465,0.09685705216996149
0.9860705336357242,10.17975902557373,0.0968658031254477
0.9894705166188595,10.214136123657227,0.0968726581122334
0.9928705032873878,10.249353885650635,0.09687152130413144
0.9962704922914262,10.283359289169312,0.09688181306090539
0.9996704916001865,10.31730055809021,0.09689264027656
1.0030705012314867,10.351219892501831,0.09690360282637665
1.00647052162094,10.384961128234863,0.09691615685344508
1.0098705505246879,10.419726133346558,0.09691910685567534
1.0132705544385134,10.453818321228027,0.09692827283796557
1.016670554968979,10.489534139633179,0.096922374381493
1.0200705520581292,10.52302598953247,0.09693699826198472
1.0234705275059348,10.556500911712646,0.09695168276548663
1.0268705156297921,10.590511798858643,0.09696136835808632
1.0302705083115191,10.624479532241821,0.09697138623920212
1.0336705059228743,10.65800404548645,0.096985373763357
1.0370705125476685,10.69327712059021,0.0969834131157753
1.0404705294374585,10.728815793991089,0.09697906548271591
1.0438705567937325,10.762455940246582,0.09699185414456768
1.0472705867232315,10.796245813369751,0.09700321804699209
1.050670597816005,10.830400705337524,0.09701123960244656
1.0540705947833735,10.864915132522583,0.09701599892190255
1.0574705912551854,10.898979187011719,0.09702473718964158
1.0608705658282083,10.932973861694336,0.09703403476936512
1.06427054318117,10.968519687652588,0.09702955125104383
1.0676705236345556,11.002346754074097,0.09704025400210226
1.0710705145073178,11.034937620162964,0.09706176431394274
1.0744705159433452,11.069841146469116,0.09706286673192803
1.0778705278489042,11.103471994400024,0.09707508862025521
1.0812705453971196,11.137912511825562,0.09708017945455147
1.0846705677748683,11.171857357025146,0.09708954680600178
1.0880705990514499,11.208635330200195,0.09707431520408079
1.091470628443584,11.242201089859009,0.09708691560660142
1.0948706311555567,11.275541067123413,0.09710138295251469
1.0982706351624258,11.310514688491821,0.09710173810922061
1.1016706207208915,11.344298601150513,0.097112272821271
1.1050705923033186,11.37766432762146,0.09712631349305569
1.1084705756519686,11.412113666534424,0.09713104934299026
1.111870569940949,11.447743654251099,0.09712573966731496
1.1152705728962937,11.481629848480225,0.0971352140431454
1.1186705804198314,11.51483154296875,0.09715040782363162
1.122070594372679,11.548033237457275,0.09716551479373332
1.125470612791413,11.582027673721313,0.097173883925784
1.1288706231776162,11.616335391998291,0.09717958246584538
1.1322706260450925,11.651558637619019,0.0971776104176626
1.1356706097863531,11.685063123703003,0.09718994221628634
1.13907060347145,11.721970558166504,0.09717398604775357
1.142470606093337,11.755638599395752,0.09718490377477755
1.1458706132434178,11.788956642150879,0.0971986451410305
1.149270626801551,11.823501586914062,0.0972022220619933
1.1526706432854164,11.857134342193604,0.09721325659469326
1.156070639905153,11.890877962112427,0.09722332056461337
1.15947063605347,11.92547345161438,0.09722638189232727
1.1628706164863867,11.961734771728516,0.0972158837056665
1.1662706098698508,11.99402928352356,0.09723759900036098
1.169670612088632,12.028051614761353,0.09724522720314577
1.1730706188367137,12.062291622161865,0.09725105772450808
