Distance,Time,Velocity
0.0,2.7475192546844482,0.0
3.1283426704558584e-08,2.7810893058776855,1.1248623565752712e-08
0.0011548757941810415,2.8149607181549072,0.0004102635559824138
0.003465626890967949,2.8492109775543213,0.0012163461808443335
0.006863831560838501,2.883479118347168,0.0023803992604506537
0.01026227355660956,2.9197311401367188,0.0035148008717436293
0.013661090432226674,2.9533307552337646,0.004625655425833047
0.01706028495165183,2.9876506328582764,0.005710267714712783
0.020459854841840555,3.021759510040283,0.006770841549057557
0.0238597953747208,3.057312250137329,0.007804173542839485
0.027260102481611457,3.0911290645599365,0.00881881730340894
0.030660777064681746,3.1444754600524902,0.009750680981358312
0.03406181605267014,3.1930782794952393,0.010667391485953368
0.037463216311132766,3.250019073486328,0.011527075830649079
0.0408649751245332,3.2865545749664307,0.012433986471972887
0.04426702296331298,3.3284690380096436,0.013299514719170636
0.04766920512590817,3.3822288513183594,0.014094021197686605
0.05107117636404327,3.430837869644165,0.014885919505528894
0.054472437443399246,3.464951753616333,0.015720980064598863
0.05787330633518143,3.5223350524902344,0.01643038083338095
0.061273607151478865,3.5594983100891113,0.01721411328607848
0.06467302449307637,3.5936028957366943,0.017996708698616044
0.06807167690585007,3.6345138549804688,0.018729238523212583
0.07147030491988561,3.6767919063568115,0.01943822406601812
0.07486852941818552,3.703050374984741,0.02021806938516034
0.07826654681996546,3.7582192420959473,0.020825434009623254
0.08166500161363541,3.7806570529937744,0.02160074306368721
0.08506400786227249,3.803239345550537,0.022366198951372877
0.08846342364289267,3.8352956771850586,0.023065607214883887
0.09186326135256447,3.8780581951141357,0.02368795328247023
0.09526353204868065,3.9243412017822266,0.024275038063819997
0.09866425185277361,3.955718994140625,0.024942179158559844
0.10206542979080485,4.00177788734436,0.025505021184105997
0.10546694424643106,4.071209669113159,0.02590555456933889
0.10886860845837813,4.108150243759155,0.026500639460244793
0.11227010224104622,4.146686553955078,0.027074653649421333
0.11567133811325853,4.185786247253418,0.027634315581489245
0.11907214815082963,4.22070837020874,0.02821141327633133
0.12247248469512849,4.267136096954346,0.02870133080183283
0.12587222637081225,4.31518030166626,0.029169633148864733
0.12927158129945007,4.334173679351807,0.02982611931665442
0.1326705328269183,4.359969139099121,0.030429236674443836
0.13606931774454026,4.396292448043823,0.030950924978861618
0.13946802922411103,4.431254625320435,0.03147371140154821
0.14286691039162125,4.462237119674683,0.03201687999987703
0.1462661306463209,4.519503116607666,0.032363321115730995
0.14966569592677648,4.555957555770874,0.032850546585360546
0.15306571107233027,4.589820623397827,0.03334895274382559
0.1564660915421723,4.6345155239105225,0.03376104594642699
0.1598668001234618,4.6677281856536865,0.03424938080473798
0.16326774379465395,4.698104381561279,0.03475183404511686
0.1666687487410026,4.7700910568237305,0.03494037047837461
0.1700696643017815,4.795661449432373,0.03546323402831353
0.17347038934634768,4.825286149978638,0.03595028024340394
0.17687087022122835,4.871560096740723,0.03630682301129003
0.18027100922904032,4.931020498275757,0.036558560097666636
0.1836708292695602,4.9593346118927,0.03703537745348127
0.18707038089321595,4.984176158905029,0.037532858977904454
0.19046973644455367,5.0107948780059814,0.03801188056621269
0.1938689766742136,5.041599988937378,0.0384538593104598
0.19726823586241796,5.084622621536255,0.03879702596351503
0.20066757952417508,5.114440441131592,0.039235490535847656
0.20406711364040142,5.14548134803772,0.03965947981100436
0.2074668844896518,5.185754299163818,0.04000707949528287
0.2108669062356162,5.230160474777222,0.040317483039485146
0.21426717293415457,5.28361964225769,0.04055310325907529
0.2176676167151297,5.320078611373901,0.04091436097387242
0.2210681824861315,5.351359844207764,0.04131065540759936
0.2244687726848386,5.389363527297974,0.041650330609146885
0.22786933912736784,5.4256486892700195,0.04199854287986087
0.23126976596361376,5.466635227203369,0.04230568829849054
0.23467003776984702,5.537961959838867,0.042374801320714556
0.23807010072999543,5.561970233917236,0.042803195759342494
0.24146996708432908,5.587333679199219,0.043217387925708554
0.24486968235485249,5.621444225311279,0.04355992384524516
0.24826927344626512,5.658363103866577,0.04387651850702426
0.25166881631556265,5.710070610046387,0.04407455415223283
0.255068378401897,5.757009029388428,0.0443057110210913
0.25846800034255535,5.79928183555603,0.04456896692929456
0.2618677347312986,5.817115068435669,0.04501677062436376
0.2652676100646116,5.883586168289185,0.04508604148509403
0.26866764430628737,5.9225709438323975,0.04536334758236547
0.2720678032636991,5.959834814071655,0.04565022550982871
0.27546806304236604,5.9858551025390625,0.04601983481449773
0.27886840933387286,6.017595052719116,0.046342169403350446
0.28226876716157934,6.044161558151245,0.046701062578465916
0.28566911400055145,6.066007614135742,0.04709343149106025
0.2890693780891234,6.095941066741943,0.047419975837072914
0.29246955479793724,6.16230583190918,0.047461058048027055
0.2958696044227952,6.2104332447052,0.047640734996232885
0.29926953536118023,6.242505073547363,0.04794061547972719
0.30266936839943986,6.261289119720459,0.04833978476511444
0.3060691253748608,6.295854568481445,0.04861438936456952
0.309468842915101,6.3437395095825195,0.04878334654940255
0.31286855947175124,6.382069826126099,0.049023054901557186
0.316268307966535,6.431816577911377,0.04917247003788745
0.3196681331581956,6.473733425140381,0.04937925493144069
0.32306804261164834,6.503256797790527,0.049677884890138475
0.3264680511755195,6.55271053314209,0.04982183319777669
0.3298681660411989,6.576529502868652,0.05015839522917245
0.3332683428798101,6.6150734424591064,0.05038014253034808
0.3366685822543638,6.656917333602905,0.05057424711509067
0.34006881436208564,6.70569634437561,0.05071342287178239
0.34346904137742473,6.747287750244141,0.05090475670983453
0.3468692057484056,6.786018371582031,0.05111527655171078
0.35026931816194445,6.817589998245239,0.051377292892664315
0.35366934703809055,6.858097076416016,0.05156960350624188
0.3570693012676292,6.8899314403533936,0.05182479743939435
0.3604691929389957,6.91537070274353,0.05212579461517327
0.3638690203494007,6.938342332839966,0.052443221002106966
0.3672688274516381,6.9640796184539795,0.05273759743906711
0.37066863568221897,6.992033004760742,0.053012998569920616
0.3740684593114206,7.0217039585113525,0.05327317436360925
0.3774683472973382,7.052509307861328,0.05352255925087256
0.38086828882368956,7.084469318389893,0.05376101888606253
0.38426831994174393,7.117711782455444,0.05398762013501765
0.3876684060772205,7.150486707687378,0.054215666978367244
0.3910685551623204,7.183356523513794,0.05444092241310978
0.39446871842222836,7.217575788497925,0.05465390734806855
0.3978688956845315,7.25295352935791,0.054856120899447434
0.40126903238308087,7.287224769592285,0.05506472560822789
0.4046691479077236,7.323421001434326,0.05525684619639746
0.40806919607492337,7.356398344039917,0.05547132944554819
0.4114692083114237,7.390041828155518,0.05567887406858188
0.4148691544231379,7.425236940383911,0.0558728506247085
0.41826906491219423,7.458996534347534,0.056075782176078164
0.4216689308819964,7.495961904525757,0.05625281134732153
0.4250688007498417,7.543307781219482,0.056350451695492576
0.42846865800861383,7.593661785125732,0.05642451166944084
0.43186855302646976,7.658427476882935,0.05639128324059616
0.43526849440792803,7.702936887741089,0.05650682340402401
0.4386684943087391,7.73530650138855,0.05670990467281349
0.44206853062285595,7.759283065795898,0.05697285778522005
0.44546862094191764,7.783488035202026,0.057232518239536956
0.44886873111139636,7.81579327583313,0.05743098816332868
0.4522688485553533,7.843979120254517,0.057658089296479205
0.4556689572444349,7.885618686676025,0.05778480742599921
0.45906905102387946,7.9379143714904785,0.0578324518934917
0.46246909846577394,7.998605012893677,0.05781871935422215
0.4658691303936284,8.037673711776733,0.057960691998611584
0.4692691170814573,8.086700916290283,0.058029735727722596
0.4726690825100593,8.098429918289185,0.05836552112929958
0.4760690146018449,8.120802402496338,0.058623395941206635
0.4794689226284694,8.145086765289307,0.058866030092122545
0.48286882736569287,8.17613959312439,0.05905829051301358
0.48626872828507456,8.205601453781128,0.05926058327644011
0.48966865255585457,8.235994100570679,0.059454711426022634
0.49306860601017927,8.268354415893555,0.05963322097833584
0.49646860776724466,8.299561500549316,0.05981865520658956
0.49986864332826025,8.33527684211731,0.05997025087426906
0.5032687067834793,8.367922306060791,0.06014261227293752
0.5066687862000027,8.40144157409668,0.060307362936637396
0.5100688643104789,8.434995412826538,0.06047055621806872
0.5134689530900457,8.47065258026123,0.06061740205076509
0.5168690063776823,8.508573293685913,0.06074684774252849
0.5202690422210614,8.542587995529175,0.060902977235159646
0.5236690372661206,8.57615351676941,0.0610610614936128
0.5270690050672241,8.610219955444336,0.06121434850615548
0.5304689525029886,8.644428014755249,0.06136541962030647
0.5338688969069587,8.678988933563232,0.06151279843696889
0.5372688481226464,8.713158369064331,0.06166177927285183
0.5406688127367907,8.746851444244385,0.06181296392001288
0.5440687789227564,8.780794858932495,0.06196122192392276
0.5474687594459421,8.814783096313477,0.06210802392572822
0.550868746099195,8.849367380142212,0.062249505804825384
0.5542687322798767,8.883795022964478,0.062390986154802125
0.5576687536480739,8.920127391815186,0.06251802571337405
0.5610687692424792,8.956182718276978,0.06264597171488029
0.5644687898232058,8.991176128387451,0.06278030613158972
0.567868824671304,9.0259690284729,0.06291499814368202
0.5712688694101529,9.059534311294556,0.06305720026888686
0.5746689072574873,9.094674110412598,0.06318741059666362
0.5780689539384319,9.12757682800293,0.06333213785338367
0.5814689924563138,9.161627531051636,0.06346787079976048
0.584869013941108,9.194827556610107,0.06360848100089155
0.5882690316982255,9.228577136993408,0.06374428289059939
0.5916690147449133,9.262300968170166,0.06387926896115553
0.5950689946064364,9.296014547348022,0.06401334588877104
0.5984689551963305,9.329792022705078,0.06414601244485303
0.6018689244765233,9.36519193649292,0.06426658722617823
0.6052688983988043,9.398767232894897,0.06439875394300795
0.6086688773138622,9.433332204818726,0.06452321026105097
0.6120688651553812,9.46884822845459,0.06464026567836086
0.6154688630476621,9.502124071121216,0.06477171403372751
0.6188688736445253,9.535936832427979,0.06489859198102016
0.6222688802543973,9.569586992263794,0.06502567778081221
0.6256688918709286,9.603511095046997,0.06515001499749573
0.6290689177670451,9.639370918273926,0.06526037052630498
0.6324689463013218,9.673829317092896,0.06537937827617021
0.6358689850121592,9.707119226455688,0.06550542649967335
0.6392690203585996,9.740721225738525,0.06562850999876872
0.6426690298903278,9.77450680732727,0.06574950967434627
0.6460690373210278,9.81151294708252,0.06584805430166998
0.6494690308220755,9.84684133529663,0.06595709311309936
0.6528690106685432,9.880082368850708,0.06607930848095628
0.6562689873189613,9.913217067718506,0.066201414014835
0.6596689670953714,9.94745135307312,0.06631537503237714
0.6630689534170956,9.98131799697876,0.06643100175926663
0.6664689500816384,10.015363693237305,0.06654465783720462
0.6698689570787819,10.049628734588623,0.06665608996810395
0.673268974847726,10.083350896835327,0.06677036054145773
0.6766690011371029,10.11769986152649,0.06687972665706371
0.680069020408306,10.157434463500977,0.06695283369555757
0.683469040373254,10.191121578216553,0.06706514441297257
0.6868690338785687,10.22646975517273,0.06716580113397765
0.6902690240360221,10.260284423828125,0.06727581765988529
0.6936690066657915,10.295380353927612,0.06737672459096296
0.6970689964978803,10.328284502029419,0.06749126598525751
0.7004689912640356,10.364613056182861,0.0675827440413881
0.7038689950372143,10.397427320480347,0.06769645733909266
0.7072690090749634,10.431130170822144,0.06780367970609066
0.7106690323714681,10.464444637298584,0.06791273278262845
0.7140690343083501,10.497995615005493,0.06801955920877725
0.7174690370387597,10.531881093978882,0.06812354133478962
0.7208690213576919,10.566933155059814,0.06821932255836358
0.7242690150042921,10.602133989334106,0.06831351270724523
0.7276690093188937,10.636213541030884,0.06841429109257677
0.7310690126312039,10.669898509979248,0.06851696030168011
0.7344690262264841,10.703997373580933,0.06861633094560203
0.7378690490873087,10.73812460899353,0.06871488979270358
0.7412690506106573,10.774789094924927,0.06879661811290629
0.7446690529512872,10.80818486213684,0.06889862289088029
0.7480690369178865,10.841108560562134,0.06900300211356776
0.7514690302235012,10.875329971313477,0.06909850388040611
0.754869024231809,10.909374475479126,0.06919452860734768
0.7582690272668031,10.943286180496216,0.06929079755021265
0.7616690406094394,10.978110313415527,0.06938070568289523
0.7650690632335401,11.014413356781006,0.06946071828351408
0.7684690645401216,11.047601461410522,0.06955981053664892
0.7718690666728425,11.081371307373047,0.06965465241285394
0.7752690504310994,11.115703344345093,0.06974538870052727
0.7786690435321468,11.149638414382935,0.06983805345002675
0.7820690373259623,11.183191061019897,0.06993254725406062
0.7854690401323746,11.217503309249878,0.07002173464791243
0.7888690532282233,11.252008438110352,0.07010917718087892
0.7922690768110414,11.287779092788696,0.07018821597219155
0.7956690913449007,11.322004556655884,0.07027634438436518
0.7990690982169412,11.355869054794312,0.07036617755640497
0.8024690798045855,11.39026403427124,0.0704521929772744
0.8058690725156189,11.424175024032593,0.07054067981454622
0.8092690658814389,11.465439796447754,0.07058334265835736
0.8126690682357719,11.501617193222046,0.07065693933151256
0.8160690808624708,11.533892393112183,0.07075400507029278
0.8194691008193861,11.567800998687744,0.0708405254302306
0.822869097302017,11.604631900787354,0.0709086771848564
0.8262690986388561,11.64537262916565,0.07095256845362581
0.8296690815880395,11.678141355514526,0.07104461714673989
0.8330690738722034,11.7113938331604,0.07113321315464582
0.8364690668339537,11.74540400505066,0.07121671306276586
0.8398690688043355,11.77901840209961,0.07130212723452652
0.8432690810686182,11.813578367233276,0.0713813422872405
0.8466691038248596,11.849639654159546,0.07145104227094835
0.8500691175308138,11.883963108062744,0.07153077721640515
0.8534691236127996,11.91736626625061,0.07161558221381362
0.8568691101843653,11.951879978179932,0.0716932492418529
0.8602691024324612,11.985196352005005,0.0717776394450598
0.8636690950336681,12.018831968307495,0.07185965302710617
0.8670690966987652,12.055441856384277,0.0719234605440518
0.8704691086732734,12.088473320007324,0.07200819207108496
0.8738691299321982,12.122119426727295,0.07208880717718878
0.8772691298808599,12.156593322753906,0.07216405999523284
0.8806691306574808,12.190300226211548,0.07224343242702658
0.8840691130624717,12.224300861358643,0.0723206278288715
0.8874691048148685,12.25817346572876,0.07239815191847651
0.8908690972621282,12.292173624038696,0.07247449674156373
0.89426909872288,12.32805347442627,0.07253935915982049
0.8976691104730318,12.361285924911499,0.07261939541936925
0.9010691327106224,12.395187377929688,0.07269507956894831
0.9044691575447595,12.429218053817749,0.07276959448522535
0.9078691635634981,12.463152170181274,0.0728442653324591
0.9112691554788416,12.498305797576904,0.07291141457392672
0.9146691469156814,12.535257339477539,0.07296771993942999
0.9180691226656938,12.569344520568848,0.07304033405746324
0.9214691113793186,12.603513479232788,0.07311208203154246
0.9248691089526684,12.639679193496704,0.07317188156393453
0.9282691110795043,12.673506498336792,0.07324485225942211
0.9316691196322144,12.708028554916382,0.07331342667402
0.9350691383991413,12.742960214614868,0.0733792715861039
0.9384691673740512,12.776946306228638,0.07345019262674342
0.9418691904004588,12.8111093044281,0.07351972167428983
0.945269200053142,12.845141887664795,0.0735896269827027
0.9486691884870716,12.879423141479492,0.07365773902029711
0.9520691778703158,12.913321256637573,0.07372767694298188
0.9554691544182087,12.94719123840332,0.07379740801110153
0.9588691346716743,12.981802701950073,0.07386255643275468
0.962269117307747,13.022189378738403,0.07389457251165948
0.9656691102839465,13.05642580986023,0.07396121452738405
0.9690691136151707,13.095200777053833,0.07400185229028558
0.9724691277314672,13.12880277633667,0.07407142481294972
0.975869150392422,13.162227869033813,0.07414163925001677
0.9792691775107863,13.19565463066101,0.07421148892722511
0.982669202341218,13.230019807815552,0.07427571663654746
0.9860692273320042,13.264519453048706,0.07433885794523577
0.9894692278008591,13.298022270202637,0.07440724700980528
0.9928692254156,13.33426022529602,0.07446001567691456
0.996269209843354,13.368397951126099,0.0745242035347573
0.9996691803863609,13.403247594833374,0.07458410160025016
1.003069166060737,13.438393115997314,0.0746420466645424
1.006469162296913,13.471850872039795,0.07470904865683997
1.009869169029864,13.505238771438599,0.07477610622964878
1.0132691814303882,13.544244050979614,0.07481179293702268
1.0166691986723304,13.576897382736206,0.07488229232439238
1.0200692176312574,13.641775846481323,0.07477539794750167
1.023469232682631,13.689468622207642,0.07476325494638378
1.0268692346804151,13.71972107887268,0.0748462179935797
1.0302692155121078,13.75315523147583,0.0749114801783235
1.0336692078227931,13.784910678863525,0.0749855571721421
1.0370691856363634,13.815513849258423,0.07506555289595908
1.0404691783876616,13.84867262840271,0.07513132892272494
1.043869181459506,13.878870010375977,0.07521283654066213
1.0472691952997988,13.917890548706055,0.0752462588806005
1.0506692176708836,13.978092193603516,0.07516542337241688
1.054069244492226,14.015855550765991,0.07520548714806205
1.0574692570560489,14.040950536727905,0.07531322429275368
1.0608692554304628,14.071796178817749,0.07538975422536233
1.064269254620108,14.098259687423706,0.07548940636761607
1.0676692339229896,14.127752304077148,0.07557247684862577
1.0710692197231675,14.160935401916504,0.0756354851797581
1.0744692106813218,14.191988945007324,0.07570955803621275
1.0778692106930783,14.227521657943726,0.07575944965026751
1.0812692210226509,14.263314485549927,0.07580771090184388
1.08466924186043,14.29696774482727,0.0758670832318881
1.0880692653131159,14.32871699333191,0.07593626601875561
1.0914692699950614,14.362295150756836,0.07599546301884384
1.094869260599023,14.395621299743652,0.07605571428990839
1.0982692507528586,14.429452419281006,0.07611302347726813
1.1016692413922091,14.470556020736694,0.0761317837278324
1.1050692410771983,14.504713773727417,0.076186904362003
1.108469251054069,14.540152549743652,0.0762350496160105
1.111869271521924,14.5749351978302,0.0762863955434567
1.1152692829474045,14.607369422912598,0.076349769123935
1.1186692867156156,14.640361309051514,0.0764099507587965
1.122069270946073,14.679017543792725,0.0764403521964969
1.1254692608431354,14.712427377700806,0.07649786346942151
1.1288692510587874,14.745478630065918,0.07655697582830792
1.1322692503153746,14.77860689163208,0.07661542516273888
1.1356692598610383,14.81187391281128,0.07667289544496868
1.139069279898649,14.84667706489563,0.07672216987812933
1.1424693025356576,14.880144834518433,0.07677810365698846
1.1458693063878123,14.914047479629517,0.07683154475355586
1.1492692961504158,14.948480367660522,0.07688201528743617
1.1526692854609917,14.983933210372925,0.07692701704403176
1.156069275263444,15.01651906967163,0.07698650199155137
1.1594692741258728,15.050722122192383,0.0770374514068151
1.1628692833061975,15.084629535675049,0.07708968129154378
1.1662693029997782,15.118988513946533,0.07713937357144966
1.1696693136670928,15.153127431869507,0.07718996087943449
