Distance,Time,Velocity
6.45816086206981e-07,1.0715863704681396,6.026729193325274e-07
1.6615098934567158e-06,1.1052436828613281,1.5032973444872256e-06
0.0011579937508261035,1.1412992477416992,0.0010146276299729784
0.0034701310826777965,1.1769862174987793,0.002948319216559896
0.0068697114142011306,1.214367389678955,0.00565702889635178
0.010269523906796783,1.248387336730957,0.00822623203923927
0.013669698647318464,1.2867975234985352,0.010623037733359474
0.017070241218559292,1.3213245868682861,0.012919036993792736
0.02047110817603555,1.3560073375701904,0.015096605754890255
0.02387228381562373,1.3943822383880615,0.01712032981947665
0.02727328953612199,1.429732084274292,0.019075804366498115
0.030674364102435382,1.4638302326202393,0.020954864450045293
0.03407498870606137,1.4988973140716553,0.022733370982898703
0.03747561177600746,1.5344767570495605,0.024422404317198186
0.040875580226568106,1.5694935321807861,0.026043802913779543
0.04427541733948569,1.6073272228240967,0.027545988589487803
0.04767477185293952,1.64267897605896,0.02902257382469133
0.05107413841314696,1.6779680252075195,0.03043808800041375
0.05447306834123777,1.7119874954223633,0.03181861344600461
0.05787214043808813,1.7490546703338623,0.03308766810990614
0.06127133456796484,1.7856462001800537,0.03431325565041194
0.06467071307616228,1.8210854530334473,0.035512179271125335
0.06807032540473715,1.8588647842407227,0.03661929903768732
0.07147022620283149,1.8953990936279297,0.037707217674158716
0.07487038257476149,1.9320416450500488,0.03875195069763727
0.07827072169320348,1.966947317123413,0.03979299344309409
0.08167126177518103,2.0053203105926514,0.04072728997146792
0.0850720172938527,2.0402445793151855,0.04169697013600565
0.08847290980730046,2.079101324081421,0.04255343824880164
0.09187350930142964,2.1129584312438965,0.043480982845149396
0.09527398202169274,2.148359537124634,0.044347317278749125
0.09867444949142694,2.182673692703247,0.045208062854882526
0.10207436270915225,2.2164828777313232,0.04605240299154951
0.10547430737518074,2.2508766651153564,0.04685921223932331
0.10887402756918776,2.2852225303649902,0.04764263703972788
0.11227353573598507,2.3235669136047363,0.04831947600846412
0.11567310340640996,2.3565731048583984,0.04908530236890763
0.11907260970172069,2.390928030014038,0.04980183769940644
0.12247220779261335,2.424403429031372,0.05051643069220743
0.1258719410618786,2.459550142288208,0.05117681436849074
0.12927181812969157,2.4927546977996826,0.051859020963353465
0.1326719058775791,2.5301735401153564,0.05243589175765797
0.1360720781512338,2.563605785369873,0.0530783940837462
0.1394723746584898,2.5969314575195312,0.05370660602329003
0.1428727875668533,2.629884719848633,0.05432663511390589
0.14627319677001896,2.6643848419189453,0.054899425364043866
0.14967356266802653,2.698660373687744,0.055462170833855705
0.15307389555600726,2.7327771186828613,0.05601404319053488
0.15647406634014274,2.7666802406311035,0.05655661396723232
0.1598741253316558,2.8056466579437256,0.05698298639245915
0.1632740745447234,2.850879430770874,0.05727147657751851
0.16667388966017688,2.8848917484283447,0.05777474657445253
0.1700736115774005,2.921349048614502,0.05821749087397164
0.17347328113099317,2.9553422927856445,0.058698202761305475
0.1768729540349914,2.989396810531616,0.059166770169777956
0.18027270020173716,3.024650812149048,0.059601161058869936
0.18367249336736005,3.059074878692627,0.06004184292666191
0.1870724027138112,3.0929434299468994,0.06048361599585509
0.19047241934170253,3.1267547607421875,0.06091696788413643
0.19387252370383884,3.16078519821167,0.06133682346194526
0.19727272412874905,3.1949551105499268,0.061745069117667126
0.20067297344879034,3.229185104370117,0.06214353372843688
0.20407322812460046,3.2634479999542236,0.06253301052367403
0.20747347168210364,3.297736406326294,0.06291390399914674
0.21087364371321482,3.3319644927978516,0.06328808250178686
0.21427376141024138,3.3664562702178955,0.06364964942686524
0.21767378840020138,3.400000810623169,0.06402168720668777
0.22107375148219274,3.4337148666381836,0.06438325838587682
0.22447363852307325,3.467869758605957,0.06472954699812862
0.22787347262262492,3.5019614696502686,0.06507023980631689
0.23127327399810532,3.5430827140808105,0.0652745907057112
0.23467308325707467,3.577794075012207,0.06559155679083459
0.23807290231583622,3.6136481761932373,0.06588159408662517
0.2414727895292011,3.6530020236968994,0.06610256111624778
0.24487273009713093,3.690469264984131,0.06635273525254082
0.24827274987741632,3.72458553314209,0.06665781941862708
0.25167282154083465,3.7590696811676025,0.06695082637113092
0.25507295370886773,3.7946362495422363,0.06721934249683044
0.2584731024388631,3.828382730484009,0.06751495883124133
0.2618732651798015,3.8626604080200195,0.06779608806305507
0.26527340220088047,3.896817922592163,0.06807436412744186
0.2686735054669274,3.9313063621520996,0.0683420422416147
0.2720735746693266,3.965409517288208,0.06861172181161942
0.2754735775591058,4.000818490982056,0.06885430523279926
0.27887354591006325,4.035942077636719,0.06909750946509126
0.2822734715151399,4.071432828903198,0.0693302538387159
0.285673361873048,4.1075944900512695,0.06954760567649956
0.2890732428027387,4.142689228057861,0.06977912821577
0.292473127003543,4.178471088409424,0.06999524965359417
0.29587301152841,4.211706161499023,0.07025015520624624
0.2992729571094666,4.248328924179077,0.07044486489880168
0.3026729395217832,4.296191215515137,0.07045145905720378
0.3060729772555659,4.336164474487305,0.07058610877341204
0.30947305278207493,4.371581554412842,0.0707920117536595
0.31287315043578734,4.404753684997559,0.07103079373119606
0.316273253406988,4.437277317047119,0.07127642263690176
0.3196733537087821,4.4711644649505615,0.07149666629682269
0.3230734335579588,4.504669666290283,0.07171967258234464
0.3264734792354044,4.538321256637573,0.07193705795020942
0.3298734902077042,4.572787761688232,0.07213837759352247
0.3332734804328114,4.608237266540527,0.07232125022134653
0.3366734251736714,4.644612550735474,0.07248686978644951
0.3400733547023765,4.6797404289245605,0.07266927725316763
0.34347326261889294,4.713117599487305,0.07287602215914496
0.3468731811903302,4.747341632843018,0.07306682518708896
0.35027311295237445,4.781522512435913,0.07325556076362177
0.3536730496758689,4.819151163101196,0.07338907573263898
0.35707303352324504,4.851653575897217,0.07359821304991082
0.36047304432784477,4.885880470275879,0.07377852293375708
0.3638730890608578,4.92040753364563,0.0739518193508774
0.36727314252204624,4.956045389175415,0.07410608936798962
0.3706732008587048,4.9931371212005615,0.07423653544078503
0.37407327302965143,5.027408838272095,0.07440677395917124
0.37747333635422126,5.063161849975586,0.07455288761034597
0.3808733984084858,5.099116563796997,0.07469399721368065
0.3842734145392871,5.1348559856414795,0.07483625940315075
0.38767340935109024,5.170199155807495,0.07498229713562019
0.3910733777841454,5.207789182662964,0.0750939341181574
0.3944733388531037,5.242744445800781,0.07524176372339879
0.3978732998900235,5.279020547866821,0.07536877272637224
0.40127327315251904,5.315245866775513,0.07549477168324313
0.404673252282028,5.352680444717407,0.07560198230802335
0.4080732334069752,5.388365268707275,0.07573228856195864
0.41147323154420745,5.424041986465454,0.07586099675683772
0.41487323572990054,5.460660696029663,0.07597491564190145
0.4182732350281575,5.496726036071777,0.07609497586077175
0.4216732473761868,5.529566287994385,0.07625792429538462
0.42507327355525015,5.563660144805908,0.076401732401302
0.4284732943305611,5.5983264446258545,0.07653596098203178
0.43187333221565205,5.63264012336731,0.07667334016671905
0.43527336395912675,5.666775465011597,0.07681147182319778
0.43867339238880343,5.70087742805481,0.07694839924640912
0.4420733956595287,5.736938953399658,0.07705736443257079
0.4454734005851523,5.773831367492676,0.07715386408637044
0.44887337904887276,5.812260627746582,0.07722870803591292
0.452273354163557,5.844640731811523,0.07738257575044766
0.45567332917111386,5.879356622695923,0.07750394446427868
0.4590733163667904,5.914846181869507,0.07761373706960727
0.46247330937808473,5.948169946670532,0.07775052050033517
0.4658733073476564,5.982646703720093,0.07787077031608267
0.46927331433784136,6.020949363708496,0.07794008651964494
0.47267333159942426,6.056429862976074,0.07804487830181145
0.4760733593329225,6.090660333633423,0.07816449009707259
0.4794733974329396,6.126541614532471,0.07826167315922643
0.4828734086321635,6.162759065628052,0.07835344583326713
0.48627341930211393,6.199276924133301,0.07844034477780618
0.48967341594429564,6.232922792434692,0.07856240679551564
0.49307339891500684,6.267701148986816,0.07866893892902231
0.49647337863141455,6.301955699920654,0.07878084237210133
0.499873361416573,6.338899374008179,0.0788580685578064
0.5032733507007616,6.373206853866577,0.07896705100595149
0.5066733502800134,6.408236742019653,0.07906595381498462
0.5100733601491174,6.442396402359009,0.07917447612542813
0.5134733807649774,6.476746559143066,0.07927952345767172
0.5168734098595389,6.514005899429321,0.07934801070794564
0.5202734244084811,6.547034502029419,0.07946703568573057
0.5236734380586043,6.581079483032227,0.07957257459186957
0.5270734316561381,6.616426467895508,0.07966134501964543
0.5304734111786694,6.650491952896118,0.07976453695995556
0.5338733993284197,6.684598684310913,0.07986618562180063
0.5372733920248592,6.721119403839111,0.0799380817007905
0.5406733896551876,6.755101919174194,0.08003926456246341
0.5440733963136598,6.788840055465698,0.08014232061272766
0.5474734132590509,6.822871923446655,0.08024090432910957
0.5508734375335004,6.857386112213135,0.08033285985637943
0.5542734336626044,6.891470909118652,0.0804289013146963
0.5576734264604789,6.925738573074341,0.08052187078336791
0.5610734179078366,6.963804483413696,0.08056995558163564
0.5644734101797629,6.996671676635742,0.08067741867390046
0.5678734075823965,7.031053304672241,0.08076647736478346
0.5712734140012208,7.0662431716918945,0.08084542240066143
0.5746734306988591,7.1008217334747314,0.08093055314848006
0.5780734547269003,7.138030767440796,0.08098500462672528
0.5814734505813057,7.172060489654541,0.08107481126519525
0.5848734431104353,7.206120491027832,0.0811634282050442
0.5882734342531482,7.239560127258301,0.08125817368905998
0.5916734262092589,7.274557113647461,0.08133463205605296
0.59507342327087,7.308563232421875,0.08142139629182323
0.5984734293252277,7.3455891609191895,0.08147384998187644
0.6018734456366237,7.379500865936279,0.08156018361822641
0.6052734692678299,7.414254188537598,0.08163646050921478
0.6086734646998782,7.4481892585754395,0.08172099869764785
0.6120734567988751,7.482706069946289,0.08179840970330518
0.615473447503086,7.516028642654419,0.08188811894757769
0.6188734390148548,7.552682161331177,0.08194088216546597
0.6222734356343019,7.586029767990112,0.08202886815182782
0.6256734412552405,7.620694398880005,0.08210189367352065
0.629073457147633,7.654537916183472,0.0821830741497309
0.632473482298113,7.68920373916626,0.08225474363184088
0.635873486096321,7.723984003067017,0.08232454726004484
0.6392734907008648,7.76162576675415,0.08236334885393526
0.6426734753779577,7.795368194580078,0.08244299170176365
0.6460734665177522,7.82976508140564,0.08251505119254048
0.6494734627832367,7.863182306289673,0.08259677030045838
0.6528734680764005,7.897583246231079,0.08266750064179035
0.6562734836653156,7.931742429733276,0.08274014057808787
0.6596735065882446,7.968777656555176,0.08278227038316124
0.6630735013764638,8.00179386138916,0.08286560649556027
0.6664734928378688,8.035881757736206,0.08293719506216597
0.6698734829514051,8.070380926132202,0.08300394852271832
0.673273473895274,8.10452914237976,0.08307373100488086
0.6766734699721364,8.139179468154907,0.08313779940836387
0.6800734750669011,8.177656173706055,0.0831623952659649
0.6834734904417309,8.211358308792114,0.08323513172113292
0.6868735150835114,8.246899366378784,0.08328869852392994
0.6902735183763148,8.282986402511597,0.08333630949424324
0.6936735224661138,8.323359489440918,0.08334056979589957
0.6970735066055845,8.362977981567383,0.08335230681486734
0.7004734972005683,8.402468919754028,0.08336519943010676
0.703873492892305,8.43907904624939,0.08340643440294947
0.7072734975808136,8.475411891937256,0.08345004426907558
0.710673512532456,8.511716842651367,0.08349355666665763
0.7140735348072241,8.546484470367432,0.08355172671091562
0.7174735288953453,8.58021879196167,0.08361949109823474
0.7208735196536975,8.613930940628052,0.08368693975170619
0.7242735090293562,8.648463487625122,0.08374591741824448
0.7276734992203313,8.683028221130371,0.08380411541788144
0.7310734945295031,8.719006776809692,0.08384825396328054
0.7344734988508115,8.753673791885376,0.08390460009278228
0.7378735134541622,8.787966966629028,0.08396407454148666
0.7412735385387746,8.822404384613037,0.084021714061488
0.7446735545611055,8.856721878051758,0.08408004279851157
0.748073562944133,8.892469644546509,0.08412438758257719
0.7514735460666374,8.929104804992676,0.08416000959541362
0.7548735403190393,8.963739395141602,0.08421413285711822
0.7582735129118208,8.997276306152344,0.08427811785587966
0.7616735048949288,9.031309127807617,0.08433699855868268
0.7650735055427671,9.06640887260437,0.08438550657632056
0.768473510767714,9.101240634918213,0.08443612707253946
0.7718735224311077,9.1378014087677,0.08447037617719474
0.7752735443147685,9.171770095825195,0.08452823568567831
0.7786735737643555,9.20695972442627,0.08457445205267024
0.7820735864351446,9.241307020187378,0.08462802769421324
0.7854735984208319,9.276050806045532,0.08467758692189468
0.7888735858314349,9.31308388710022,0.08470594653658418
0.7922735652587984,9.347171068191528,0.08476078585476086
0.7956735491548452,9.381136894226074,0.08481632430335478
0.7990735266552325,9.4148428440094,0.0848738040448203
0.8024735124103491,9.448775053024292,0.08492884081873656
0.8058735084699807,9.483783483505249,0.08497384085914689
0.8092735148331349,9.520705699920654,0.08500142114884188
0.8126735319579333,9.554824113845825,0.08505374063142555
0.8160735575730044,9.589436292648315,0.0851013065490244
0.8194735875943686,9.623057842254639,0.08515729625941536
0.8228736105639078,9.656941890716553,0.08521057907109866
0.8262736254971442,9.691319942474365,0.08525914224292774
0.8296736260088661,9.72633147239685,0.08530180452552584
0.8330736130723103,9.762510776519775,0.08533395067547281
0.8364735995551134,9.795340061187744,0.08539505462086897
0.8398735719112786,9.82995319366455,0.08544024120609048
0.8432735604673604,9.865679502487183,0.08547546676888979
0.8466735595966697,9.899780035018921,0.08552448201896351
0.8500735692162277,9.937468528747559,0.08554226529191981
0.8534735845230386,9.971161127090454,0.08559420248502983
0.8568736046879908,10.006662607192993,0.08563030835795868
0.8602736234726127,10.040533542633057,0.08568007066754066
0.863673628349691,10.075193405151367,0.08572278403192751
0.867073629918949,10.11298942565918,0.08573860739129882
0.8704736093819831,10.14801812171936,0.08577769559939458
0.8738735944008117,10.18205213546753,0.08582489882926592
0.8772735799436719,10.21615195274353,0.08587123449236497
0.8806735758503422,10.250581502914429,0.08591449915304322
0.8840735820837498,10.288125991821289,0.08593144978848026
0.8874735990884932,10.322059631347656,0.08597834451501071
0.8908736246131284,10.355513334274292,0.08602891965428194
0.8942736431166255,10.389591693878174,0.08607399303704644
0.8976736623080143,10.423704385757446,0.0861184881196901
0.9010736550360644,10.457885026931763,0.08616213055656725
0.9044736444139067,10.492645740509033,0.08620072256151742
0.9078736262612251,10.530495166778564,0.08621376410915321
0.9112736153114017,10.56409502029419,0.08626139897083437
0.9146736092979184,10.59818720817566,0.08630472281073884
0.9180736122961367,10.632254838943481,0.08634796909997362
0.9214736255653934,10.666954517364502,0.0863858211887326
0.9248736493087693,10.70065712928772,0.08643148155615492
0.928273663988204,10.735281467437744,0.08646942949785189
0.9316736710046676,10.770480632781982,0.08650251579014437
0.9350736527416678,10.803694486618042,0.0865512861271571
0.938473645603434,10.8377685546875,0.08659288495301276
0.9418736391363771,10.872045755386353,0.08663260441759485
0.9452736416770909,10.906372547149658,0.08667168094529605
0.9486736545126248,10.939758539199829,0.0867179701556753
0.9520736766214053,10.977892398834229,0.08672645367907855
0.9554736774066362,11.011196374893188,0.08677292138620174
0.9588736790176883,11.045788526535034,0.0868089839592899
0.9622736622633131,11.080585956573486,0.08684321082247916
0.9656736548520031,11.114487886428833,0.08688422397140973
0.9690736481471078,11.15029501914978,0.08691013524600003
0.9724736504696786,11.186944961547852,0.08692933180705709
0.9758736630993192,11.220032453536987,0.08697601073263261
0.9792736862285212,11.254294633865356,0.08701333296195958
0.9826737003178103,11.288589000701904,0.08705017963331904
0.9860737067753493,11.323328495025635,0.087083378991304
0.9894736879764449,11.35722541809082,0.08712283604059855
0.9928736803139836,11.394030809402466,0.08713981003936329
0.9962736733328716,11.428354740142822,0.08717559928669322
0.9996736753595222,11.46318769454956,0.087207302366238
1.0030736876723905,11.49623417854309,0.087252370828054
1.0064737092576894,11.531005859375,0.08728412087653227
1.0098737095047263,11.56502914428711,0.08732132854188124
1.0132737105536458,11.603234767913818,0.08732683004532756
1.0166736931970104,11.63635540008545,0.08737045735037834
1.0200736851745924,11.670324802398682,0.087407480292659
1.0234736778200653,11.709211111068726,0.08740756897384615
1.0268736794614626,11.743855237960815,0.08743923172198155
1.0302736913821597,11.781583547592163,0.08744781100268306
1.0336737137846503,11.81603717803955,0.08748057391912772
1.0370737271295865,11.852883100509644,0.08749548260414337
1.0404737328237215,11.88990330696106,0.08750901550347899
1.0438737189846745,11.924776077270508,0.08753822396500793
1.0472737108118484,11.959354162216187,0.08756942027192029
1.0506737029712045,11.994261264801025,0.08759803374089953
1.0540737041829622,12.03435230255127,0.08758873578593006
1.0574737156978418,12.072955131530762,0.0875902961766215
1.0608737364938712,12.119709253311157,0.0875329361720485
1.064273735978202,12.155955076217651,0.08755163451207429
1.0676737362965305,12.195974826812744,0.08754312397802422
1.0710737182578691,12.229284286499023,0.08758269847731981
1.0744737095681927,12.263854503631592,0.08761305095800165
1.0778737015904722,12.29858946800232,0.08764205882266539
1.0812737026435804,12.333138704299927,0.08767222428679865
1.0846737140058478,12.371225833892822,0.0876771411798354
1.0880737358703851,12.40687370300293,0.08769926751225253
1.0914737603436968,12.442827463150024,0.0877191107548621
1.0948737660359993,12.476447343826294,0.08775525082288545
1.0982737576419335,12.513697385787964,0.08776572772882163
1.101673748789102,12.546871185302734,0.08780465922688283
1.105073740412077,12.58310079574585,0.0878220526363172
1.1084737410725634,12.616575956344604,0.08785852396942419
1.1118737520181532,12.650970220565796,0.08788841745992398
1.1152737722367372,12.687875032424927,0.08790075322987984
1.118673771122427,12.722990274429321,0.0879253812974092
1.1220737708122699,12.756800174713135,0.08795887334164519
1.1254737521034177,12.791022777557373,0.08798934781651158
1.1288737427321467,12.825395345687866,0.08801863118486206
1.1322737340369635,12.859886884689331,0.08804694350655767
1.1356737343465584,12.894246578216553,0.08807600564000051
1.139073744943975,12.929582357406616,0.08809826284075331
1.1424737660308482,12.964985132217407,0.08811994417115467
1.1458737975017017,12.998973608016968,0.08815109808323614
1.1492738021183908,13.03339147567749,0.0881791822384166
1.152673806222838,13.067679405212402,0.08820799550401141
1.1560738028168802,13.101636171340942,0.08823888770058533
1.1594737803223667,13.137128829956055,0.08825929891761937
1.162873767807783,13.171617269515991,0.08828633143623936
1.1662737642607133,13.20466160774231,0.08832288163877597
1.1696737652955618,13.239365816116333,0.08834817177358399
