Distance,Time,Velocity
0.0,0.037731170654296875,0.0
2.2506789227235646e-06,0.07068419456481934,3.1841332232478516e-05
0.0011514685475639166,0.10579800605773926,0.010883650746078359
0.0034612402742076535,0.13943839073181152,0.024822721031432595
0.006859349293599606,0.17562294006347656,0.039057251240187565
0.01025875691925841,0.20979022979736328,0.048900069984991
0.013659363166885213,0.24337387084960938,0.05612501916989227
0.017061170979206734,0.27833080291748047,0.06129817756558203
0.020464039892993894,0.3121306896209717,0.06556240886740071
0.02386743330269621,0.3463444709777832,0.06891241322638934
0.027271008453873254,0.3807809352874756,0.0716186287879267
0.030674082903608946,0.416064977645874,0.07372426075649324
0.03407654797588953,0.4491128921508789,0.07587523887967472
0.03747836239466238,0.48391079902648926,0.07744890684411201
0.04087952397596276,0.5183982849121094,0.07885736732885523
0.04428003924014966,0.5522592067718506,0.08017981175720378
0.04767990923115237,0.5880017280578613,0.08108804269782777
0.051079138042518714,0.6221010684967041,0.08210745910781109
0.05447773347025066,0.658322811126709,0.08275231018808674
0.05787570009397192,0.6917989253997803,0.08365971378247866
0.06127304164206199,0.7254047393798828,0.08446738533090047
0.064670072125576,0.7612724304199219,0.08494997262662415
0.06806704278813121,0.7958292961120605,0.08552970231262598
0.07146464982308384,0.8319880962371826,0.08589624075908743
0.07486299036311617,0.866544246673584,0.08639257677896289
0.07826230998345077,0.9011209011077881,0.08684995530260081
0.08166272310943469,0.9354350566864014,0.08729919038816994
0.08506399135320226,0.9702792167663574,0.08766960054724703
0.0884658278817855,1.00477933883667,0.0880450308464851
0.0918682060176872,1.0390071868896484,0.0884192209417743
0.09527041279181604,1.0739822387695312,0.08870762416049637
0.0986723564853008,1.1069693565368652,0.08913738750094725
0.10207370122801494,1.1411716938018799,0.08944640125794785
0.10547440070772272,1.1754798889160156,0.0897288007240918
0.10887445534479583,1.2093408107757568,0.0900279345364654
0.112273864107192,1.2438671588897705,0.09026194099971534
0.11567263623313592,1.280247688293457,0.0903517634055056
0.1190709530062085,1.313366174697876,0.09066089511068712
0.12246917752316214,1.347764492034912,0.09086838112069043
0.12586725378596425,1.3830351829528809,0.09100799121915937
0.12926597485762115,1.4159421920776367,0.09129325729601073
0.13266504100798743,1.4484012126922607,0.09159412450462684
0.13606458599128593,1.4838404655456543,0.0916975841747588
0.139464943656772,1.5166630744934082,0.0919551256981421
0.14286577040803417,1.5507967472076416,0.09212411018096195
0.14626706433365713,1.5870344638824463,0.09216376056247468
0.14966832141195646,1.62117600440979,0.09232083438494092
0.15306977442144512,1.6554040908813477,0.09246671266829466
0.1564709165613372,1.6896169185638428,0.09260733296535399
0.15987164564544543,1.7249979972839355,0.09267932246713818
0.16327194443048204,1.7604291439056396,0.09274553593690876
0.1666717455127674,1.7938978672027588,0.09291038724108645
0.170071075384333,1.8279297351837158,0.09304026960710284
0.17347021498526685,1.8628389835357666,0.0931214219363239
0.17686900728416474,1.8972041606903076,0.09322613293226704
0.1802679171281766,1.9313607215881348,0.09333725963938236
0.1836669897301411,1.9668066501617432,0.0933833479335841
0.18706624178723563,2.0010921955108643,0.0934820705447202
0.1904660727263964,2.0350160598754883,0.09359438310184638
0.19386599753989384,2.0687994956970215,0.09370941840575825
0.19726644501723706,2.1029655933380127,0.09380393366499085
0.2006670685522071,2.137279510498047,0.09388901524885061
0.20406792695781908,2.1704165935516357,0.0940224690338759
0.20746867086788057,2.206141233444214,0.09404142750370599
0.21086934214738018,2.2403526306152344,0.09412328187347556
0.21426982675760653,2.2731287479400635,0.09426207246368268
0.21767002837961977,2.3076553344726562,0.09432519021709174
0.2210700497598086,2.340857744216919,0.09443976264937987
0.2244694144480623,2.3755664825439453,0.09449089979063967
0.22786923119246835,2.4095959663391113,0.09456740232623691
0.23126836951628807,2.4442622661590576,0.09461683908400954
0.23466791449537036,2.480677843093872,0.09459830310037168
0.23806722761268764,2.513788938522339,0.09470454100757912
0.24146692889103052,2.5476479530334473,0.09478033595792518
0.24486683152941155,2.5818800926208496,0.09484051262847332
0.24826685730797401,2.616636276245117,0.09488015570289268
0.2516670464494085,2.650831460952759,0.09493890885049125
0.2550675744303708,2.687041997909546,0.09492504197136005
0.2584680632149392,2.720935583114624,0.09499234925623405
0.2618686349485019,2.753690004348755,0.09509735465319145
0.2652691903451767,2.788360357284546,0.09513447200329228
0.268669579979374,2.8215038776397705,0.09522211970309964
0.27206983275331936,2.8558428287506104,0.09526778925447586
0.2754699117755016,2.8899965286254883,0.09531842306624427
0.2788698075704963,2.9241464138031006,0.09536793583731754
0.2822695503146077,2.9602906703948975,0.09535197105389433
0.28566917260647956,2.9930570125579834,0.0954439462422186
0.28906873275620093,3.027251720428467,0.09548883259542326
0.2924683144800715,3.060932159423828,0.09554877378763076
0.2958679557275259,3.095428943634033,0.09558221529717201
0.2992677205321411,3.1285593509674072,0.09565671830377842
0.30266759823902506,3.1631507873535156,0.09568547900059332
0.3060676405685014,3.197516918182373,0.09572041318314131
0.30946780428378723,3.2318668365478516,0.09575512232872445
0.3128680757674087,3.2652359008789062,0.09581790880199306
0.31626839709363364,3.299280881881714,0.09585979745781842
0.3196687456461741,3.3339035511016846,0.09588422122785763
0.3230690380546288,3.3680810928344727,0.0959208015335355
0.326469270315109,3.402473211288452,0.0959505777244551
0.32986940085668826,3.436609983444214,0.09598685985486459
0.333269411014005,3.472121000289917,0.09598438850091269
0.33666932435713626,3.5055155754089355,0.09603988831738741
0.34006913533251965,3.5400235652923584,0.09606408800966118
0.3434688875085207,3.573936939239502,0.0961037906789725
0.3468686199093594,3.6076889038085938,0.09614704292911021
0.3502683765013016,3.642061471939087,0.09617310943266798
0.3536681669050977,3.6760151386260986,0.09620966007155246
0.35706804381927304,3.711865186691284,0.09619639341954646
0.3604679877991618,3.746406078338623,0.09621700911797967
0.36386800669374997,3.779909372329712,0.0962636854093365
0.36726810652597586,3.814352035522461,0.09628584438606236
0.3706682585678063,3.8477296829223633,0.09633427738257395
0.3740684680997253,3.881979465484619,0.09636023874562853
0.37746867085184527,3.9162495136260986,0.09638524551065769
0.38086886090863575,3.9521353244781494,0.09637039970510795
0.38426899961613564,3.9854626655578613,0.09641766386045118
0.3876690759336354,4.020143747329712,0.09643164530898571
0.3910690791544701,4.05438494682312,0.09645583344544002
0.39446901575415994,4.0878822803497314,0.09649715640060258
0.39786890647288564,4.1214892864227295,0.09653522763811871
0.40126877019247814,4.156138181686401,0.09654846702658444
0.40466862286271266,4.191620588302612,0.09654228342899288
0.4080684738425832,4.2264933586120605,0.0965501277817195
0.41146834669300725,4.259454965591431,0.0966011731587528
0.41486826387240094,4.292623519897461,0.09664678533986856
0.4182682180131229,4.326450824737549,0.09667698419720185
0.4216682381625275,4.360820293426514,0.09669470645193723
0.4250682861468571,4.394737958908081,0.09672210041220974
0.4284683740733574,4.42875862121582,0.0967468337562571
0.4318684889094945,4.4652791023254395,0.09671702014877075
0.4352686027833956,4.498371362686157,0.09676137599352831
0.4386687047491379,4.532181739807129,0.09678974276256755
0.4420687824650299,4.566420555114746,0.09680860033136424
0.4454688052027378,4.600734233856201,0.09682558969057399
0.4488687886694347,4.634527683258057,0.09685318965532244
0.45226873808520734,4.668939113616943,0.09686755964886483
0.4556686715280115,4.704555511474609,0.09685690187236953
0.45906858482162777,4.736992835998535,0.09691139520688305
0.46246851401861416,4.770821571350098,0.0969368707469267
0.46586843997981814,4.804725646972656,0.09696046646770577
0.4692684119573991,4.839269638061523,0.0969709164925505
0.4726684052918524,4.874201774597168,0.09697349989802513
0.476068432226359,4.907778739929199,0.09700283110832067
0.479468477604229,4.942696809768677,0.09700543975438959
0.4828685225490843,4.976247787475586,0.09703466209307073
0.48626855363357513,5.0100953578948975,0.09705774419389328
0.48966857591345087,5.044672012329102,0.09706648414737536
0.49306859787841195,5.078609466552734,0.0970873230410248
0.49646860134345844,5.112414360046387,0.09711039958407319
0.49986860413634,5.145538330078125,0.09714602672656614
0.5032686077259337,5.180673837661743,0.09714346501942306
0.5066685968474736,5.215403318405151,0.09714849761655839
0.510068573336245,5.2488861083984375,0.09717653665986654
0.5134685538565118,5.282683849334717,0.09719842574360688
0.516868527820852,5.317675590515137,0.09719820606258188
0.5202684913860038,5.3504369258880615,0.09723850567580516
0.5236684477162968,5.384812593460083,0.09724915001727232
0.5270684323521738,5.418808937072754,0.09726647284908642
0.5304684153539097,5.453449487686157,0.09727208742864546
0.5338684272305031,5.4882166385650635,0.09727539242512247
0.5372684340135662,5.521795749664307,0.0972995848399914
0.5406684606586232,5.555856704711914,0.09731504777653517
0.5440684807902006,5.589864015579224,0.09733125515645019
0.5474684957706561,5.624654531478882,0.09733371048954204
0.5508685017043362,5.658352851867676,0.0973549222054098
0.5542684973247043,5.69302773475647,0.09735917742695034
0.5576684824341188,5.727910995483398,0.097359837272935
0.5610684571342562,5.761684417724609,0.09737924128719151
0.5644684378905533,5.795500755310059,0.09739769896041613
0.567868421931571,5.829099416732788,0.09741958085351399
0.571268431245484,5.862988471984863,0.09743638998697982
0.5746684410573993,5.897401809692383,0.09744434237343833
0.5780684579244336,5.931315660476685,0.09746041030599538
0.5814684678797432,5.9673638343811035,0.09744143042353129
0.5848684731689634,6.000741004943848,0.09746604172503132
0.5882684719901085,6.0341880321502686,0.09748925105677896
0.5916684605424,6.068572521209717,0.09749713931480809
0.5950684388313456,6.104297637939453,0.09748352294175076
0.5984684112459652,6.137913465499878,0.09750355957441399
0.6018684086231563,6.171573162078857,0.09752268875646294
0.6052684140166975,6.207587957382202,0.09750460535913934
0.6086684226891151,6.240845680236816,0.09752979866440448
0.6120684472537709,6.274956226348877,0.09754146884462121
0.6154684588411748,6.308201789855957,0.09756638727551367
0.6188684597328094,6.342009782791138,0.09758238806444153
0.6222684548766408,6.376579999923706,0.09758655186386529
0.6256684451187299,6.410800457000732,0.09759599434037702
0.6290684263976838,6.446388006210327,0.09758463589092857
0.6324684017639004,6.480514049530029,0.0975954063103632
0.6358683893293487,6.513783931732178,0.09761889494548455
0.6392683804096005,6.547784805297852,0.09763124467565958
0.6426683979088782,6.581607341766357,0.09764611659990038
0.6460684071192597,6.616147994995117,0.09765023509268349
0.6494684276537117,6.650400161743164,0.0976585486373916
0.6528684321355052,6.687017917633057,0.09763222413595612
0.6562684258411283,6.720585107803345,0.0976504895502518
0.6596684109852925,6.753047466278076,0.09768455120142476
0.6630683916625135,6.786411762237549,0.09770529919096645
0.6664683793384466,6.82052755355835,0.09771507762485941
0.6698683750137366,6.855237007141113,0.0977162969443556
0.673268378280947,6.8897545337677,0.09772022718388002
0.67666839491555,6.923865079879761,0.09772986433284181
0.6800684000388307,6.957712173461914,0.09774310622286815
0.6834683942561737,6.992577791213989,0.09774197937632324
0.686868379893524,7.026482820510864,0.09775422461555024
0.6902683724872689,7.0604248046875,0.09776584151551214
0.69366836240698,7.09428334236145,0.09777849698572667
0.6970683719214883,7.127692222595215,0.09779720422154865
0.7004683728275788,7.161535024642944,0.09780980898889094
0.7038683958775898,7.196579933166504,0.09780595816544857
0.7072684010880284,7.231858015060425,0.0977989888096716
0.7106683955185441,7.26668906211853,0.097798101644844
0.7140683813483645,7.300090551376343,0.09781637314262295
0.7174683626712929,7.334458351135254,0.09782158795137756
0.7208683462416012,7.368910551071167,0.09782563395844364
0.7242683296152291,7.403566122055054,0.09782695496669509
0.7276683329579803,7.438230514526367,0.09782815032915324
0.7310683503568092,7.473189115524292,0.09782548508482647
0.7344683590121146,7.507163763046265,0.09783566499874531
0.7378683795383272,7.540467262268066,0.09785446363921839
0.741268387791773,7.5749289989471436,0.0978581301415239
0.7446683857243914,7.609686374664307,0.09785796011300685
0.7480683731318615,7.643654823303223,0.09786789048234154
0.7514683501136771,7.680003881454468,0.09784739196920317
0.7548683215235742,7.712847948074341,0.09787154195254703
0.7582683132070719,7.746725797653198,0.09788242581617934
0.7616683129864595,7.780787706375122,0.09789090021854639
0.7650683134403362,7.814912796020508,0.09789850935123967
0.768468338419037,7.849134206771851,0.09790485398453755
0.7718683507052776,7.882784605026245,0.09791823440324839
0.7752683583397997,7.917636394500732,0.09791664073867669
0.7786683595117522,7.952552795410156,0.09791426470770032
0.7820683504207275,7.986588478088379,0.0979227053661739
0.7854683310718081,8.020067930221558,0.09793786510360758
0.788868300898261,8.054332256317139,0.09794335219776155
0.7922682964879986,8.087839603424072,0.09795796347798286
0.7956682911422116,8.122313499450684,0.09796079543051657
0.7990682987917576,8.156346797943115,0.09796889693229674
0.8024683200628306,8.190898895263672,0.09797072706230718
0.805868335588749,8.226168155670166,0.09796399980387915
0.8092683389454526,8.259204149246216,0.09798381591273674
0.8126683365406635,8.293271541595459,0.09799128515986376
0.8160683292156956,8.327967643737793,0.09799129441014788
0.8194683129044559,8.362309694290161,0.09799545136004639
0.8228682906536025,8.396854162216187,0.09799721118848423
0.8262682805940968,8.432077646255493,0.09799106640829204
0.8296682740133723,8.466317415237427,0.09799635819466915
0.833068293817706,8.498971939086914,0.09801988991002676
0.8364683053222346,8.534401416778564,0.09801136183701702
0.8398683281148591,8.568507671356201,0.09801804005176633
0.8432683348331992,8.603458166122437,0.0980150444798709
0.8466683307586228,8.639614820480347,0.09799838862625934
0.850068318102151,8.67305612564087,0.09801254664881323
0.8534683009642879,8.706971168518066,0.09802126186545636
0.8568682774699167,8.740924835205078,0.09802947555603972
0.8602682510952906,8.774946689605713,0.09803686353038633
0.8636682446435479,8.808966159820557,0.09804422323506136
0.8670682387025703,8.843524694442749,0.09804554955869961
0.8704682573892701,8.879841566085815,0.09802745363315842
0.8738682740218501,8.912698984146118,0.09804754716571089
0.8772683004892553,8.946946620941162,0.09805225599937381
0.8806683139556634,8.980962753295898,0.09805945511047458
0.8840683228094329,9.014568567276001,0.09807106310319834
0.8874683251847698,9.049427032470703,0.09806900724216022
0.8908683172889309,9.083449840545654,0.09807598797016259
0.8942682991268859,9.117809057235718,0.09807929662852632
0.8976682702433385,9.153026819229126,0.09807337921893479
0.9010682329082469,9.186901569366455,0.09808184251291441
0.9044682206161054,9.22019076347351,0.09809647585592537
0.907868211741692,9.254385232925415,0.09810140694291204
0.9112682063452836,9.288069486618042,0.09811169131090268
0.914668227301939,9.32190203666687,0.0981203432201039
0.9180682515871835,9.356215476989746,0.09812388928461932
0.9214682698237379,9.392632961273193,0.09810542726656601
0.9248682776029442,9.427644729614258,0.09810173210046134
0.9282682745704178,9.460164785385132,0.09812390118240706
0.931668262926037,9.493554830551147,0.09813692337119509
0.9350682467701369,9.535348176956177,0.09806335640998318
0.9384682242324144,9.57446837425232,0.09801778934861231
0.9418682049587102,9.615417957305908,0.0979539536545125
0.9452682111133747,9.660186290740967,0.09785196503088034
0.948668217758438,9.69614863395691,0.09783969425098378
0.952068231614933,9.729456663131714,0.09785420343385154
0.9554682490395185,9.763438701629639,0.09786185771617935
0.9588682599229565,9.799370527267456,0.09784998508371903
0.9622682604947114,9.83341908454895,0.09785693584510231
0.9656682505371448,9.867287635803223,0.09786562287221061
0.9690682301476659,9.902426958084106,0.09786168928583124
0.9724682041734763,9.940499067306519,0.09782891156560178
0.9758681895821196,9.973217725753784,0.09784888051347167
0.9792681787451253,10.00722360610962,0.09785613046032683
0.9826681810195289,10.041721105575562,0.09785854144803052
0.9860681972844187,10.077022790908813,0.09785312762952365
0.9894682105560652,10.111985445022583,0.09785103192005785
0.9928682209038201,10.148143768310547,0.09783742165776509
0.996268224762777,10.180950164794922,0.09785611447228267
0.9996682183384678,10.216302633285522,0.09785029420344984
1.003068201632432,10.250649452209473,0.09785411220127384
1.006468174090875,10.286204814910889,0.09784640615282111
1.0098681722785345,10.322178363800049,0.0978347919098307
1.0132681695158536,10.355478286743164,0.09784851471447875
1.0166681797293862,10.388814926147461,0.09786180492738863
1.0200681920968677,10.423635244369507,0.09786107899812341
1.0234681962394152,10.45832872390747,0.0978615439673256
1.026868190092087,10.493294477462769,0.09785946561373728
1.030268173654921,10.529245376586914,0.09784824427644648
1.033668151319249,10.563126564025879,0.09785626869600732
1.0370681539254332,10.596935987472534,0.09786490690813197
1.0404681645228666,10.631415843963623,0.0978673188777232
1.0438681706800719,10.666404962539673,0.09786504209676347
1.0472681832855095,10.70062518119812,0.09786981279613886
1.050668187667204,10.735995054244995,0.097864071505116
1.054068181780842,10.769388198852539,0.09787632893511548
1.0574681656285456,10.802066326141357,0.09789498913457305
1.0608681386315426,10.836318254470825,0.09789931540575157
1.0642681374041842,10.870842695236206,0.09790116251710322
1.0676681352406014,10.904591083526611,0.09790996535885792
1.0710681460889901,10.938668966293335,0.09791576556429343
1.0744681591209173,10.973711490631104,0.09791292217207034
1.0778681639548953,11.00850510597229,0.0979123099438937
1.0812681585271031,11.042620658874512,0.09791771282645041
1.0846681428326101,11.076188802719116,0.09792792107031732
1.0880681212506738,11.109222412109375,0.09794277951125076
1.0914681246333888,11.143038511276245,0.09795067328618429
1.0948681360206258,11.176219463348389,0.09796408701629093
1.0982681429703534,11.21044111251831,0.0979683254162011
1.1016681563687059,11.244987487792969,0.09796970939848756
1.105068161534617,11.28159475326538,0.0979531870895081
1.1084681564140295,11.312548398971558,0.09798571615523892
1.1118681410013047,11.347555875778198,0.09798305055052699
1.1152681148537507,11.381733894348145,0.09798754084450718
1.1186681009097383,11.417387247085571,0.09797934297054628
1.1220680903428923,11.452149868011475,0.09797881649078748
1.1254681062186938,11.488231182098389,0.09796704891980776
1.1288681140085388,11.520765781402588,0.09798551028880526
1.1322681388606057,11.55483365058899,0.09799086452472557
1.1356681461249964,11.588245630264282,0.09800173230355459
1.139068147607466,11.622846841812134,0.09800250860312226
1.1424681441606264,11.656812906265259,0.09800861979577428
1.1458681317198618,11.690970182418823,0.09801309162887502
1.149268109034764,11.725313663482666,0.09801597995745277
1.1526680790398003,11.760874509811401,0.09800870488654544
1.1560680772691982,11.793578863143921,0.0980252127606509
1.1594680788425442,11.828703880310059,0.09802156606292116
1.1628680879904165,11.862399578094482,0.09802975193465992
1.1662681104696546,11.895506620407104,0.09804274401132997
1.1696681214305367,11.930001974105835,0.09804425212747749
1.1730681214621443,11.963807582855225,0.09805140322912027
