Distance,Time,Velocity
6.106862729922999e-07,1.072591781616211,5.693557264368565e-07
1.3893067105685996e-06,1.107576608657837,1.2543662440218593e-06
0.0011532054973986306,1.1457831859588623,0.001006477937126959
0.003462452704196445,1.1790802478790283,0.002936570865659762
0.006859728238567353,1.2131602764129639,0.0056544286620148765
0.010257909007325306,1.2472798824310303,0.008224223890576964
0.013657149070884146,1.2815520763397217,0.010656725796029084
0.01705759123390316,1.3154101371765137,0.012967507815103769
0.02045904133860426,1.3496978282928467,0.015158238318040192
0.023861290664399012,1.3872923851013184,0.017199900266630777
0.02726380152860398,1.4199926853179932,0.019199959133943373
0.030666415127653876,1.454624891281128,0.021082009053650336
0.03406868267065007,1.4899816513061523,0.022865169272913315
0.03747030036430698,1.5239572525024414,0.024587500930736868
0.040871276570146615,1.5599772930145264,0.02619991762262531
0.04427160610188002,1.5968971252441406,0.027723517941152024
0.047671287468395926,1.629237413406372,0.029259877704825042
0.05107032993821128,1.6643266677856445,0.03068528007555115
0.054468738650719266,1.699160099029541,0.032056272202853967
0.05786663794176925,1.7335205078125,0.03338099415667726
0.061264524614321816,1.7708547115325928,0.034596019772452254
0.06466237501969513,1.8052027225494385,0.035820007477262286
0.06806083757421601,1.8398184776306152,0.03699323514886491
0.07145979719213782,1.8733623027801514,0.038145209330885096
0.07485965813449735,1.907557725906372,0.03924371835139508
0.07826017607992504,1.9421982765197754,0.04029463779576585
0.08166128009351412,1.9789612293243408,0.04126471953237558
0.08506266353358077,2.01206374168396,0.04227632642611468
0.08846439235192136,2.0462803840637207,0.043231803931111035
0.09186593744207486,2.080286741256714,0.04416022830899652
0.09526721618061583,2.1143083572387695,0.04505833591133901
0.09866799427944277,2.149961233139038,0.04589291786223659
0.10206813789543637,2.187298059463501,0.04666402800195944
0.10546766641597773,2.220442533493042,0.047498489524096583
0.10886680793275265,2.254565954208374,0.048287258010590375
0.11226548254830089,2.288764238357544,0.04905069760652347
0.11566426128514715,2.324204444885254,0.04976509770458575
0.11906305985708696,2.360048294067383,0.05044941671591384
0.1224617736069726,2.3944802284240723,0.05114336387215477
0.12586148301334912,2.4285552501678467,0.05182566178169114
0.12926093694079924,2.462209701538086,0.05249793990335303
0.1326614917883383,2.4962220191955566,0.05314490889359688
0.13606198831273816,2.5305564403533936,0.05376761653802001
0.13946284721192945,2.565368175506592,0.05436367712965382
0.14286372403038491,2.6025376319885254,0.05489400893743342
0.14626493640809415,2.6378567218780518,0.05544840066368699
0.14966586581780586,2.671557903289795,0.05602194346358923
0.15306643256998811,2.7065443992614746,0.05655419235382018
0.1564668249311555,2.740837574005127,0.05708722998222543
0.1598668899983701,2.778717517852783,0.05753261674540602
0.16326655287627076,2.8112995624542236,0.058075117663285034
0.16666604136310884,2.8449981212615967,0.05858212703817246
0.17006529283903388,2.8787407875061035,0.059076278620543675
0.17346450439895048,2.9134981632232666,0.059538223359318306
0.1768637955604997,2.948941707611084,0.05997534474961723
0.18026320311099803,2.986588954925537,0.06035755366124443
0.18366286372636684,3.019949436187744,0.06081653604048915
0.18706272162849577,3.054523468017578,0.06124121277414892
0.19046288707604972,3.0885865688323975,0.06166668242297379
0.193863227539785,3.1226367950439453,0.06208318170319156
0.19726375155090622,3.157022714614868,0.06248410904289957
0.20066437438216395,3.1943607330322266,0.06281831989328411
0.20406497650584535,3.2275145053863525,0.0632266644085671
0.20746550512431775,3.262061834335327,0.06359950107033781
0.21086584661901134,3.297100305557251,0.06395493830248285
0.21426602403709927,3.33125376701355,0.06431993448196159
0.2176659951751494,3.3656258583068848,0.06467325969638488
0.22106579183283975,3.4032976627349854,0.06495634932361018
0.22446545012391467,3.4360735416412354,0.0653261484085405
0.2278650030425784,3.4708762168884277,0.0656505702893821
0.23126453115856938,3.5054068565368652,0.06597366315048664
0.23466409772725066,3.5402438640594482,0.06628472691092281
0.2380637494111979,3.574993371963501,0.06659138203672967
0.24146353984877,3.6117913722991943,0.06685423241793148
0.2448634728918978,3.646008253097534,0.0671593303947871
0.24826356263643848,3.679976224899292,0.06746336048495329
0.2516637822162684,3.714608907699585,0.06774973852418852
0.2550641020944269,3.7485854625701904,0.06804276030018643
0.2584644710457782,3.7861146926879883,0.06826641346733182
0.2618648483252146,3.819213390350342,0.06856512626051339
0.26526515469834083,3.8538947105407715,0.06883041043462221
0.2686653825181323,3.888711452484131,0.06908853634447662
0.2720654960335829,3.9231345653533936,0.06934900944675483
0.27546548022758777,3.9579949378967285,0.06959722903889555
0.2788653509089912,3.9955406188964844,0.06979414740276377
0.2822651381581088,4.029917001724243,0.07004241974148316
0.28566484055181124,4.06453800201416,0.07028224128062072
0.2890645254059758,4.098159074783325,0.07053521352663916
0.2924642405401438,4.132122755050659,0.07077820720177473
0.2958640068584261,4.1665942668914795,0.07100859548754619
0.2992638680058387,4.203106641769409,0.07120063646061943
0.30266382018520005,4.236828565597534,0.07143640945087765
0.3060638700549398,4.272425413131714,0.07163703059958
0.309464019689519,4.305913686752319,0.07186953622447743
0.3128642303722776,4.339845895767212,0.07209109214624969
0.3162644802658061,4.374274015426636,0.07230102164392184
0.3196647207665555,4.411652565002441,0.07245917851792089
0.323064928859546,4.44531512260437,0.0726753717001445
0.32646505876452975,4.480870723724365,0.0728575044658244
0.3298651243569951,4.515188217163086,0.07305678268363548
0.3332650961124912,4.549410581588745,0.07325456564883365
0.33666499679666756,4.587478160858154,0.07338781461004046
0.34006484851827223,4.620761156082153,0.07359498511855699
0.34346466167048645,4.655282974243164,0.07377954542630687
0.34686448398123504,4.689443826675415,0.07396708368871643
0.35026431525327967,4.723685264587402,0.07415064629287363
0.3536642005761334,4.757857799530029,0.07433265462685068
0.35706412230710327,4.792981386184692,0.07449728958604059
0.3604641176934592,4.828727960586548,0.07464991207532708
0.363864154242836,4.862763404846191,0.0748266209867854
0.36726425249053674,4.897278547286987,0.07499353956372262
0.3706643706571286,4.931820631027222,0.07515771525127932
0.374064520521608,4.968153238296509,0.07529246836393236
0.377464656179796,5.003931283950806,0.07543362103921068
0.3808647804422762,5.03787899017334,0.07560022405960402
0.3842648427713546,5.072808265686035,0.07574992442955805
0.3876648680790164,5.107172727584839,0.07590596378014838
0.3910648350929526,5.142130374908447,0.07605113184239622
0.394464757480979,5.179384708404541,0.07616054409723312
0.39786465942865384,5.213279724121094,0.07631753531040958
0.40126454421961005,5.247615098953247,0.07646607776161997
0.40466442693585253,5.282182693481445,0.07660932050594058
0.4080643438962215,5.3171868324279785,0.07674440578381703
0.41146427840354094,5.355286359786987,0.07683329158515949
0.4148642538575654,5.389565467834473,0.07697545494781008
0.4182642566724317,5.422948360443115,0.07712857082014606
0.4216642858591377,5.456873416900635,0.07727213985818134
0.4250643563545428,5.492129802703857,0.07739517666630481
0.4284644356452158,5.526872158050537,0.07752385497484451
0.4318645321496257,5.563039302825928,0.077631040990533
0.43526461364359975,5.596791744232178,0.07777037873388186
0.438664677194036,5.63121771812439,0.07789872442370133
0.44206471590317714,5.665472984313965,0.07802785700807767
0.4454647128132509,5.700832366943359,0.07814029323091598
0.4488646935566318,5.7347424030303955,0.07827111699375361
0.4522646395760321,5.772506952285767,0.07834804588618932
0.45566458938986737,5.806969881057739,0.0784685642810443
0.4590645250290559,5.841230154037476,0.07859038471746387
0.46246445923829116,5.8768603801727295,0.07869243598138682
0.46586439662078455,5.911196231842041,0.07881051116376361
0.4692643617359774,5.9472496509552,0.07890443301982587
0.47266436165453535,5.981680870056152,0.07901865243608328
0.47606436924894197,6.015630483627319,0.07913790093069073
0.47946438958886817,6.0500242710113525,0.07924999439857099
0.48286441736428803,6.085854530334473,0.07934208991645915
0.4862644644479076,6.123058795928955,0.07941528583250104
0.4896644936309318,6.155490398406982,0.07954922547806347
0.49306451197158174,6.190750360488892,0.07964535528979783
0.4964645282847654,6.226200103759766,0.07973796537393157
0.4998645303666511,6.260597467422485,0.07984294357970398
0.50326452642581,6.2954816818237305,0.07994059102400881
0.5066645273766748,6.332552433013916,0.08000952739613287
0.5100645152769608,6.365586519241333,0.08012843965519639
0.5134644893499496,6.39975118637085,0.08023194564867504
0.5168644629429889,6.434770822525024,0.0803236785269331
0.520264432549443,6.469125509262085,0.08042268337576096
0.5236643941972906,6.50768518447876,0.08046861201065215
0.527064359186526,6.540250062942505,0.08058779926059831
0.530464350571026,6.575634717941284,0.08067120108172693
0.5338643443317974,6.609105348587036,0.08077709707652528
0.5372643509095512,6.643605709075928,0.08086939147752047
0.5406643649457047,6.681298494338989,0.08092204912021297
0.5440643983449426,6.714643716812134,0.08102654754156403
0.5474644260197358,6.748480558395386,0.08112410212676209
0.550864453226167,6.78284478187561,0.08121436815097521
0.5542644712864103,6.81784200668335,0.08129617417697264
0.5576644789537614,6.852186679840088,0.08138489288309579
0.5610644757641258,6.886864185333252,0.08146878763182348
0.5644644626344495,6.9232707023620605,0.08153147362010087
0.5678644553814698,6.956308364868164,0.0816330193539705
0.5712644383804752,6.991586208343506,0.08170741536430588
0.5746644105225098,7.0260584354400635,0.0817904399462224
0.578064371889398,7.060651779174805,0.08187124786331804
0.5814643455695474,7.09895396232605,0.08190845421105172
0.5848643227132859,7.1330084800720215,0.0819940596379861
0.5882643287076805,7.166584730148315,0.08208433317378865
0.5916643296385753,7.201094150543213,0.0821631153918385
0.5950643504707502,7.236004829406738,0.08223658835224106
0.5984643764305096,7.274978876113892,0.08226338338870808
0.6018644024102554,7.3083906173706055,0.08235252245271923
0.6052644145606523,7.34262490272522,0.08243161302383947
0.6086644180559286,7.377493143081665,0.08250287817979353
0.6120644169826909,7.412214279174805,0.0825751110167354
0.6154644094741295,7.446589469909668,0.08265050892910247
0.6188643917427427,7.484748363494873,0.08268339317339116
0.6222643637923614,7.518185377120972,0.08276789312564843
0.6256643250440573,7.551617383956909,0.08285169828297374
0.6290643121107283,7.586341857910156,0.08292063868105458
0.63246429830789,7.625872373580933,0.08293664873005203
0.6358643041150912,7.661041021347046,0.08299972580009587
0.6392643177662277,7.695911884307861,0.08306544141568228
0.6426643388723442,7.72952127456665,0.08314413222290726
0.6460643527229406,7.763544321060181,0.08321770650170189
0.649464361594521,7.798372030258179,0.08328204387717822
0.6528643614073557,7.834963083267212,0.08332705010463286
0.6562643509050242,7.872134685516357,0.08336548815818157
0.6596643298951795,7.9058263301849365,0.08344027586041704
0.6630643062714322,7.9399731159210205,0.08350964122811366
0.6664643014231397,7.974005460739136,0.08357961437379842
0.6698643106556933,8.012144804000854,0.08360611634492644
0.6732643203416308,8.044679403305054,0.08369063409351388
0.6766643295465962,8.079052448272705,0.08375540744153313
0.6800643297094102,8.113633155822754,0.08381748553930635
0.6834643195825391,8.148315668106079,0.08387798747877882
0.6868642989655196,8.186182737350464,0.08390532205341776
0.6902642873914512,8.21915578842163,0.08398238276050567
0.6936642834721771,8.254024505615234,0.08403952314416749
0.6970642990882555,8.288208246231079,0.08410313524702201
0.700464309037084,8.323899269104004,0.08415098337830834
0.7038643186651877,8.35827898979187,0.08421163250530773
0.7072643192515029,8.395056247711182,0.08424771655869853
0.710664309548073,8.428655624389648,0.08431526226930584
0.7140642893524354,8.462592601776123,0.08437890407279774
0.7174642782032864,8.496986150741577,0.08443750118866199
0.720864274689915,8.530914306640625,0.08450023629105975
0.7242642906933773,8.565316200256348,0.08455779959083135
0.7276643010220383,8.603217601776123,0.08458048310574091
0.7310643110019294,8.635538816452026,0.08465763706708604
0.7344643119164248,8.671117544174194,0.08470238215256169
0.7378643025150659,8.705336093902588,0.08476000174558251
0.7412642826024943,8.740164756774902,0.0848112482122155
0.7446642600748674,8.775939226150513,0.0848529417633066
0.7480642562977249,8.813325643539429,0.08487877182276707
0.7514642665921195,8.846199035644531,0.08494770053942925
0.7548642681520448,8.881682395935059,0.0849911350689064
0.7582642816131645,8.916452407836914,0.08504102830703221
0.7616642828146192,8.953484058380127,0.08506903880637726
0.7650642737086945,8.98773193359375,0.08512317449623612
0.7684642540934937,9.021767139434814,0.08517890588579696
0.7718642435022329,9.056068181991577,0.08523171734032675
0.77526424053796,9.090710401535034,0.0852809303447892
0.7786642570854518,9.124905824661255,0.08533394996592837
0.7820642679535623,9.162438154220581,0.08535547577948044
0.7854642784868934,9.195711612701416,0.08541636705983521
0.7888642799718657,9.230342388153076,0.0854642489735109
0.7922642711659449,9.26498293876648,0.08551168160827993
0.7956642518668214,9.298289060592651,0.08557103857299395
0.7990642221758364,9.332607507705688,0.08562068227085197
0.8024642193503043,9.37060284614563,0.08563634939243835
0.8058642170339186,9.404133319854736,0.08569255556304328
0.8092642222444213,9.439056158065796,0.08573571432276039
0.8126642465517375,9.472206354141235,0.08579460963669165
0.8160642608964076,9.507480144500732,0.085833916925762
0.819464266278215,9.541465759277344,0.0858845262303053
0.8228642670943723,9.57853388786316,0.08590712072721415
0.8262642614631025,9.611912965774536,0.08596252009409673
0.8296642455943941,9.646698713302612,0.08600499199278433
0.8330642194923467,9.681949853897095,0.08604302150532507
0.836464199324421,9.71689748764038,0.08608346443794224
0.8398641925000725,9.754375696182251,0.08610127584370013
0.8432642068687144,9.788250207901001,0.08615065910228142
0.8466642098939446,9.822936058044434,0.08619258080180356
0.8500642362424272,9.857172966003418,0.08623813736192204
0.8534642432651296,9.892460107803345,0.08627421631873979
0.8568642397852819,9.926283836364746,0.08632276226538844
0.8602642305722884,9.963653087615967,0.08634024318264642
0.8636642164723258,9.997405290603638,0.08638883703995343
0.867064193421082,10.032074213027954,0.08642920447050584
0.8704641722126043,10.065539598464966,0.0864796331778729
0.8738641776405129,10.10022258758545,0.08651929896224378
0.8772641864331392,10.138867139816284,0.08652487248679296
0.8806641967093485,10.172983407974243,0.08656892097347046
0.8840642178823565,10.20738673210144,0.08661024031763614
0.8874642281751114,10.241704225540161,0.08665200718860883
0.8908642281519102,10.27762484550476,0.08667997144705641
0.8942642173465173,10.314665079116821,0.08669832810733273
0.8976641980053528,10.34965968132019,0.0867336922802903
0.9010641742221248,10.382741451263428,0.08678480326720246
0.9044641574641104,10.41784143447876,0.0868187678947298
0.9078641487175199,10.451844930648804,0.08686161675201622
0.9112641475920528,10.486598253250122,0.08689797449898719
0.9146641659831285,10.522914171218872,0.08692118467380626
0.9180641787038422,10.55694031715393,0.08696309263130751
0.9214641910772867,10.590885639190674,0.08700539524924022
0.9248641943903131,10.625570297241211,0.08704136987644248
0.9282641873924179,10.659931421279907,0.08707975227114209
0.931664169885254,10.693855047225952,0.08712145112972455
0.9350641419735412,10.731534481048584,0.08713238014794839
0.9384641408795239,10.764801263809204,0.08717895647870433
0.9418641402819211,10.79927682876587,0.08721548259352811
0.9452641471664712,10.832696676254272,0.08726028018845298
0.9486641630576661,10.867127656936646,0.08729667976727226
0.9520641666904118,10.901317119598389,0.08733478315008292
0.9554641599977542,10.938560247421265,0.08734825593002538
0.9588641427806385,10.97355580329895,0.08737952947688822
0.9622641229310978,11.008195400238037,0.08741343044385733
0.965664121821899,11.042577743530273,0.08744915763782339
0.9690641347696849,11.078040599822998,0.0874761313643469
0.972464138977794,11.115182638168335,0.087489713001967
0.9758641550783395,11.151327133178711,0.08751103285050585
0.97926415891524,11.18462061882019,0.08755452619174647
0.9826641524422277,11.219156742095947,0.08758805808952873
0.9860641354547451,11.253478050231934,0.08762305582800888
0.9894641080540464,11.29077959060669,0.08763470229081669
0.9928641074927135,11.323800802230835,0.08767940418884049
0.996264107426584,11.360095262527466,0.08769856980978598
0.9996641148760013,11.394040584564209,0.08773569897848803
1.0030641313556672,11.428582906723022,0.08776802334483663
1.0064641356061994,11.467320442199707,0.08776803096060821
1.0098641295630815,11.500449419021606,0.0878108404957443
1.013264113016819,11.535377979278564,0.08783969756664962
1.0166640938558165,11.571830749511719,0.08785680640020727
1.0200640934725995,11.610106706619263,0.08786001018328549
1.023464107164851,11.64500093460083,0.08788870974873249
1.0268641121336852,11.679110050201416,0.08792314720212574
1.0302641290103713,11.713433742523193,0.0879557738283191
1.0336641336277803,11.74832534790039,0.08798395541646387
1.0370641279318815,11.787729263305664,0.08797827849339789
1.0404641117178417,11.820672750473022,0.08802071875953134
1.0438640850900869,11.85564374923706,0.08804786202834933
1.0472640733781318,11.889634847640991,0.08808210569947976
1.0506640623267718,11.923853874206543,0.08811446981915373
1.0540640758872672,11.958131551742554,0.08814621843942398
1.0574640873989403,11.995813131332397,0.08815276428714139
1.0608641087320785,12.030694723129272,0.08817978787979253
1.0642641170675766,12.064743757247925,0.08821274106449359
1.0676641207885331,12.09965467453003,0.08823922248260387
1.0710641180343736,12.13310980796814,0.08827614148278597
1.0744641050175368,12.171128273010254,0.0882797453873019
1.077864081750918,12.205641746520996,0.0883086775882263
1.0812640526052366,12.239806175231934,0.08833996528419272
1.0846640484612327,12.27388072013855,0.08837172799647255
1.0880640523371334,12.3081374168396,0.08840200718335164
1.0914640595245948,12.342158794403076,0.08843380462902098
1.0948640826379712,12.379561424255371,0.08844126581841547
1.0982640928039695,12.412606954574585,0.08847972845859035
1.1016640922901182,12.446646690368652,0.08851091540523903
1.1050640860697216,12.481322288513184,0.08853742099799271
1.1084640749767207,12.516302824020386,0.08856162163553892
1.1118640549484262,12.553597211837769,0.08856935874125088
1.1152640290259144,12.589414358139038,0.08858744317243779
1.1186640287941068,12.622350931167603,0.08862564786024589
1.122064027675771,12.657118320465088,0.08865082866939183
1.1254640453254414,12.691514015197754,0.08867847003735944
1.1288640648023103,12.725512266159058,0.08870873259886734
1.1322640783431406,12.762923240661621,0.08871510523042563
1.1356640814582695,12.7973952293396,0.0887418151198941
1.139064073789358,12.831296443939209,0.08877232934068705
1.1424640575517861,12.865395069122314,0.08880131946307389
1.1458640368314288,12.89949369430542,0.08883015597249985
1.149264018373379,12.933626890182495,0.08885860309189442
1.1526639997293944,12.97050428390503,0.08886809444716222
1.15606400105594,13.00475549697876,0.08889548145095959
1.1594640164486911,13.038672924041748,0.0889250020460885
1.1628640230925067,13.074451446533203,0.08894170649131514
1.166264041601128,13.108642101287842,0.08896909630987256
1.16966404782609,13.142205238342285,0.08900059210866712
