Distance,Time,Velocity
0.0,0.10185647010803223,0.0
1.36293306333577e-06,0.15965676307678223,8.536644718772782e-06
0.001153449346473236,0.19295144081115723,0.005977925542427662
0.003464379926822481,0.2187023162841797,0.015840618360533954
0.006863414081118422,0.2674875259399414,0.02565881925521811
0.010263745302848097,0.3131744861602783,0.03277324864068031
0.013665177167868194,0.35916805267333984,0.038046750166548224
0.017067609488382297,0.39449548721313477,0.043264397291219586
0.02047066130232817,0.42789292335510254,0.04784061662393946
0.023873544517128066,0.4489021301269531,0.05318207002131274
0.027276212553551185,0.4930272102355957,0.05532394964674891
0.030678242461339336,0.5375723838806152,0.05706811469718727
0.034079630911461274,0.5867416858673096,0.058082852697069684
0.03748037069508877,0.627561092376709,0.05972385979688852
0.040880464875039255,0.6523680686950684,0.0626647238526135
0.04427991359873408,0.7164506912231445,0.0618045514383386
0.04767872721883895,0.7474138736724854,0.0637916004750691
0.05107690970071453,0.7808611392974854,0.06541100220029737
0.05447451898701153,0.8162407875061035,0.06673829563632801
0.05787204829200483,0.8507363796234131,0.06802582994936983
0.061269503264685,0.8765397071838379,0.06989929008639292
0.06466768587795678,0.9052095413208008,0.07143946558892815
0.06806649925736379,0.9403915405273438,0.07238102037710176
0.07146611002009105,1.005173683166504,0.07109827009692306
0.07486658552134741,1.0291087627410889,0.07274895349441594
0.07826791768372968,1.0597693920135498,0.07385372541758498
0.08166954977063198,1.1127362251281738,0.0733952467137705
0.08507159902167251,1.1414215564727783,0.07453127071172619
0.08847343335387212,1.1975016593933105,0.07388167912743883
0.09187497100664094,1.2361865043640137,0.07432128621555228
0.09527603150085309,1.2580256462097168,0.07573457010825539
0.09867642629959361,1.285466194152832,0.0767631437905101
0.10207617711808155,1.324840784072876,0.07704788254198748
0.10547531703990295,1.356445550918579,0.07775860739008324
0.10887395639423511,1.3821496963500977,0.07877146497354322
0.11227243429479014,1.411203145980835,0.07955795351969466
0.11567084405689808,1.4403629302978516,0.08030673493726931
0.11906944400282854,1.472531795501709,0.08086035518320348
0.1224685255259879,1.5035831928253174,0.08145111365328755
0.12586805984795812,1.5353262424468994,0.0819813120938766
0.12926812700289197,1.5724077224731445,0.0822103104400772
0.1326686635511244,1.6113555431365967,0.08233357567559371
0.13606967765136171,1.642982006072998,0.08281872664971604
0.13947071503981345,1.6768898963928223,0.08317225557851506
0.14287201453931272,1.70914626121521,0.08359262035171298
0.1462730305737691,1.7423083782196045,0.08395358273099718
0.14967385201118286,1.776153564453125,0.08426853117132764
0.1530743234523508,1.8093974590301514,0.08459961225677835
0.1564742564959308,1.8432097434997559,0.08489226852654792
0.1598738551775436,1.880079984664917,0.08503566682352486
0.16327311984331794,1.913564682006836,0.0853240663242627
0.1666723093368396,1.9467182159423828,0.08561706978025864
0.17007112001568553,1.9818260669708252,0.08581536132261862
0.17347039246737547,2.0155725479125977,0.08606507002044055
0.17686955698610252,2.0493483543395996,0.08630526704333707
0.1802691324885086,2.0838513374328613,0.08650767415615443
0.18366906027346588,2.117696523666382,0.08673058590825773
0.18706927351491204,2.154050350189209,0.08684535786198318
0.19046974404516673,2.187222719192505,0.08708292135676322
0.1938702689958525,2.2201902866363525,0.08732146526484048
0.19727102404097357,2.253916025161743,0.08752367960417567
0.20067177747872464,2.290006160736084,0.08762936140495887
0.2040723427567543,2.3243212699890137,0.08779868144377428
0.207472590591464,2.358816623687744,0.08795621860045397
0.210872606632008,2.3931832313537598,0.08811385767262082
0.21427258746576222,2.4261205196380615,0.08831902031714742
0.21767198751261715,2.459798574447632,0.0884917935044731
0.22107152390348792,2.4942877292633057,0.08863112355076291
0.22447072220944267,2.5296053886413574,0.08873744625046247
0.2278704831514885,2.5668506622314453,0.08877434379193427
0.23126972144596328,2.603245258331299,0.08883900612353714
0.23466961652724755,2.6369149684906006,0.08899400220765369
0.23806964553374538,2.6715619564056396,0.08911253020463276
0.24146964214614328,2.7067666053771973,0.08920962807300988
0.24487003485326064,2.744969606399536,0.08920682920582375
0.24827047541991906,2.7779204845428467,0.0893727796750727
0.25167103811993474,2.818344831466675,0.0892974611587768
0.2550715545485968,2.8488471508026123,0.0895350087408989
0.2584720749320043,2.8803365230560303,0.08973676265361036
0.2618723826498974,2.913011074066162,0.08989748957059734
0.26527255265799426,2.9455223083496094,0.0900595972082886
0.2686725487758287,2.9796383380889893,0.09016951666293285
0.2720723890097189,3.0139434337615967,0.09027123268539747
0.27547208606143814,3.052885055541992,0.09023336321207559
0.27887170326260446,3.0864739418029785,0.09035284551914935
0.28227128641411026,3.1200003623962402,0.09047155564985854
0.28567088817943265,3.1545655727386475,0.09055791727652263
0.2890705946403767,3.1881091594696045,0.09067148588113855
0.2924703900975409,3.2242379188537598,0.09070992819336243
0.29587035575058346,3.2578892707824707,0.090816578207252
0.29927043380433244,3.290623188018799,0.09094643072290377
0.3026706476280686,3.3248095512390137,0.0910339804321352
0.30607093455483575,3.3588685989379883,0.0911232236508477
0.30947125849414475,3.3940982818603516,0.09117922723337267
0.31287157874574245,3.428255796432495,0.09126261204642963
0.31627185276919323,3.4638168811798096,0.09130732472828297
0.3196720303441585,3.4973528385162354,0.09140399756742316
0.3230721193600883,3.5307915210723877,0.09150132978170385
0.3264720989917924,3.564756155014038,0.09158329063618849
0.32987198036746224,3.5987701416015625,0.09166242004571572
0.33327178034682775,3.6328303813934326,0.09173887722745695
0.3366715404119545,3.6667957305908203,0.09181627915709054
0.3400712874011647,3.700779438018799,0.09189180092916341
0.34347106689286394,3.735546588897705,0.09194666930769461
0.3468708907991823,3.7710015773773193,0.09198375648530657
0.35027078844876053,3.8055777549743652,0.09204142209180009
0.35367075221338035,3.839341640472412,0.0921175517399027
0.35707079965508726,3.8736085891723633,0.09218040270077446
0.36047091667204245,3.9082601070404053,0.0922330926804703
0.363871079232851,3.94447660446167,0.09224825388019027
0.36727127355117345,3.978080987930298,0.09232372962377924
0.37067145583777317,4.010509967803955,0.09242501796866065
0.37407161491390983,4.044261932373047,0.09249440841592975
0.3774717355429497,4.079001426696777,0.09254023131063985
0.3808717965370816,4.113143682479858,0.09259870939092746
0.38427178481731705,4.147016525268555,0.09266222656116187
0.38767171739611955,4.185145854949951,0.09263039588873674
0.39107158709940965,4.217958927154541,0.09271583575215815
0.39447144287479224,4.251389980316162,0.09278646388620804
0.3978712868671388,4.284829616546631,0.09285580115734081
0.401271152165259,4.318180799484253,0.09292597294980916
0.4046710599669002,4.352485656738281,0.09297470270589187
0.40807098882059223,4.387318134307861,0.09301148818672779
0.4114709846630315,4.4212095737457275,0.09306751417224177
0.4148710092320316,4.457651853561401,0.09306940579053388
0.4182710708306857,4.490344524383545,0.09314899303592031
0.42167116948904027,4.523998022079468,0.09320763789706919
0.42507127767935615,4.557754039764404,0.09326332091876739
0.4284713826065245,4.591788291931152,0.09331252996995726
0.43187148719927876,4.626086950302124,0.09335567874941775
0.43527154594630024,4.660200119018555,0.09340190009650683
0.43867156480787156,4.696117162704468,0.09341154609422969
0.4420715326149197,4.731465578079224,0.09343226222822532
0.44547146527861775,4.764855146408081,0.09349108243393929
0.4488713894139698,4.7986366748809814,0.09354144100211609
0.452271308770467,4.832576751708984,0.09358802394820248
0.4556712203707902,4.866455078125,0.09363514366320959
0.4590711676602418,4.900631427764893,0.0936759220575822
0.4624711307494534,4.9379026889801025,0.09365740069798223
0.46587113919098666,4.985819101333618,0.09343923831219116
0.46927116887465836,5.017634153366089,0.09352438909079232
0.47267121188472516,5.049043893814087,0.09361598390218502
0.4760712683662063,5.0815019607543945,0.09368711692783234
0.4794713158090935,5.1134161949157715,0.09376731670811932
0.48287134593458203,5.146056175231934,0.09383328309913347
0.4862713812836534,5.179800748825073,0.09387839510891488
0.4896714113882078,5.214440584182739,0.09390679661276727
0.4930714270652373,5.251067876815796,0.093899267469426
0.49647142213782014,5.2842583656311035,0.09395290460566383
0.4998713883353157,5.319733381271362,0.09396549648430905
0.5032713572681073,5.353759765625,0.09400335078526917
0.5066713213547228,5.387646675109863,0.09404316056868947
0.5100712712477028,5.421489000320435,0.09408324377630486
0.513471218643991,5.455026149749756,0.09412809481537426
0.5168711680015726,5.488921642303467,0.09416625007324095
0.5202711464741832,5.525251388549805,0.09416243893488023
0.5236711244903193,5.561115741729736,0.09416655736200087
0.5270711386775578,5.5956315994262695,0.09419332372266956
0.5304711616796326,5.628401756286621,0.09424898659501783
0.5338711980575161,5.662209987640381,0.09428671829954453
0.5372712300271281,5.6962385177612305,0.09432035339669899
0.54067125293785,5.7303547859191895,0.0943521427794322
0.5440712711576434,5.767286777496338,0.09433747482101672
0.5474712828311834,5.801357746124268,0.09436950913722471
0.5508712841720423,5.834450006484985,0.09441700306965514
0.5542712751938921,5.868088722229004,0.09445516273369349
0.5576712554486628,5.901944160461426,0.09448941573941678
0.5610712272019284,5.935847997665405,0.09452250586986057
0.5644711945368549,5.969733476638794,0.09455551018245381
0.567871164193757,6.003598213195801,0.09458846911933355
0.5712711349844031,6.039839744567871,0.09458382327084003
0.5746711284730345,6.072917222976685,0.09462851334425981
0.5780711222827678,6.1065833568573,0.09466359312587311
0.581471143576563,6.140242099761963,0.0946984066962286
0.5848711682146802,6.174376726150513,0.09472553978404959
0.5882711930208683,6.208747863769531,0.09474876511794922
0.5916712056465174,6.242872953414917,0.09477546797149973
0.5950712125004247,6.277003765106201,0.09480179314347706
0.5984712144241257,6.313586235046387,0.09479100975956316
0.6018712073520446,6.348644733428955,0.09480310091740934
0.6052711900267707,6.382638454437256,0.09483087509147284
0.6086711622412188,6.416678190231323,0.09485767311314641
0.6120711318941668,6.4502458572387695,0.09489113212750981
0.6154711203724473,6.484470367431641,0.09491463226721818
0.618871122978772,6.5205464363098145,0.09491092947863598
0.6222711260674554,6.553853750228882,0.094947362236413
0.6256711510231787,6.587247371673584,0.09498218538348562
0.6290711732100739,6.62106990814209,0.09501050161643662
0.6324711922514875,6.654810190200806,0.09503970424022011
0.6358712008483659,6.689371585845947,0.09505694110248067
0.639271198861525,6.723909616470337,0.09507432956796723
0.6426711863877698,6.760628938674927,0.0950608578310367
0.6460711682382067,6.796567916870117,0.09505844363514114
0.6494711452395202,6.831472873687744,0.09507044194540214
0.6528711205142759,6.865635633468628,0.0950925967191817
0.656271099696854,6.9001429080963135,0.09510978373024932
0.6596710919256584,6.93446946144104,0.09512928070326715
0.6630711053229983,6.969310522079468,0.0951415643229446
0.6664711178058534,7.002532482147217,0.09517572671101562
0.6698711429283412,7.0367515087127686,0.09519607763595457
0.6732711565267726,7.071014404296875,0.09521563923241945
0.6766711642708102,7.105128765106201,0.09523700226152002
0.6800711670765496,7.140385866165161,0.0952429154142885
0.6834711608766506,7.200510501861572,0.09491982001830988
0.6868711444209301,7.277121305465698,0.09438775521098365
0.6902711175050313,7.305527925491333,0.09448613769532709
0.6936710880222711,7.357531309127808,0.09428041266527777
0.6970710773836865,7.394021987915039,0.09427495326941082
0.7004710808736834,7.431301593780518,0.09425954148596646
0.7038710848580136,7.462954759597778,0.09431533588660657
0.7072711107351656,7.503244400024414,0.0942620382634563
0.7106711172147604,7.541991472244263,0.09422857607704066
0.7140711150671923,7.569214344024658,0.09433886829098707
0.7174711083752378,7.611327886581421,0.0942635922491424
0.7208710952707011,7.646691560745239,0.09427228619646923
0.7242710792290857,7.699517726898193,0.09406707081131217
0.7276710830465623,7.7273664474487305,0.09416805686584338
0.7310710873140686,7.769718408584595,0.0940923530132474
0.734471107260081,7.803295612335205,0.09412319406419156
0.7378711142379203,7.843867540359497,0.09406980809419717
0.7412711123529034,7.88378381729126,0.09402478930575144
0.7446711058987661,7.931005477905273,0.09389365673410777
0.7480710930064969,7.971719980239868,0.09384061342606109
0.7514710698914882,8.011016130447388,0.09380471311690157
0.7548710486550747,8.037254333496094,0.09392150818334453
0.7582710522296474,8.079569578170776,0.09385042667103571
0.7616710638307167,8.12752389907837,0.09371501988657177
0.7650710711012654,8.161368370056152,0.09374298970602665
0.7684710963958656,8.208128213882446,0.09362318379678168
0.7718711065606289,8.243305444717407,0.09363611620812502
0.7752711061672074,8.285343408584595,0.0935713908205585
0.7786710952849537,8.320490598678589,0.09358475753925106
0.7820710787442479,8.33896279335022,0.09378517426266714
0.7854710573700786,8.36445164680481,0.0939058638315072
0.7888710374181263,8.393522500991821,0.09398569400688557
0.7922710313866157,8.425821781158447,0.09402893295918824
0.7956710287129017,8.461680889129639,0.0940322660637163
0.7990710481979059,8.488158464431763,0.09413950641311448
0.8024710621417186,8.527309894561768,0.09410600436293384
0.8058710756121658,8.562719821929932,0.09411391384642226
0.809271078748862,8.593709945678711,0.09417016444170291
0.8126710715841272,8.626834630966187,0.09420269500322041
0.816071053665458,8.716363668441772,0.09362517268756264
0.8194710272488485,8.750056266784668,0.09365322944945755
0.8228710153596313,8.768204689025879,0.09384714939302469
0.8262710043601056,8.80089259147644,0.09388490948751485
0.8296710133965147,8.860006093978882,0.09364226216055832
0.8330710278818829,8.895858764648438,0.09364706094395887
0.8364710449719795,8.91562271118164,0.09382082127846313
0.8398710549272927,8.944719314575195,0.09389574176561852
0.8432710599194666,8.969141006469727,0.09401915515780032
0.8466710558692504,9.000540733337402,0.09406890996373554
0.8500710415165318,9.040260314941406,0.09403169951993152
0.8534710166683617,9.116851568222046,0.09361466623447554
0.8568709892241155,9.141383409500122,0.09373537361244667
0.8602709805565231,9.171766757965088,0.09379555796154904
0.8636709859840606,9.229388952255249,0.09357834960168387
0.8670709918692916,9.246875762939453,0.09376907553407658
0.8704710196041817,9.26842212677002,0.09391792990200531
0.8738710279241654,9.293958187103271,0.09402571114821556
0.8772710275863245,9.326097011566162,0.09406625585154635
0.8806710226829467,9.400759935379028,0.09368083311739617
0.8840710113543968,9.444830656051636,0.0936036911141378
0.8874709898216915,9.482961177825928,0.09358585078855652
0.8908709701734497,9.519314527511597,0.0935856219057328
0.8942709753735656,9.563514471054077,0.09350861318611048
0.8976709785581439,9.614380836486816,0.09336752868697068
0.9010709916527208,9.657111406326294,0.0933064716497354
0.9044709918136019,9.700290441513062,0.09324164026500237
0.9078709874388802,9.736877918243408,0.09324046116854935
0.9112709766547673,9.758445024490356,0.09338280580233727
0.9146709629361625,9.817256450653076,0.09316971269252272
0.9180709690702956,9.850332260131836,0.09320203063465071
0.9214709664891105,9.887099504470825,0.09319932160816553
0.9248709859213432,9.934724569320679,0.09309477876995481
0.9282709953842506,9.965882539749146,0.09314488623379023
0.9316709959066773,10.012681484222412,0.09304909952191805
0.9350709918813835,10.05225396156311,0.09302102746874706
0.9384709814225305,10.089895486831665,0.09301097148601094
0.9418709607391172,10.137220621109009,0.09291214978372217
0.9452709327270784,10.164252519607544,0.09299955219565685
0.9486709330635038,10.195241928100586,0.09305036013404784
0.9520709338855466,10.251160144805908,0.09287445717721472
0.9554709478133901,10.273573160171509,0.09300278811636353
0.9588709693800513,10.297519445419312,0.0931166942157696
0.9622709821239679,10.32875394821167,0.09316428554197251
0.9656709841836958,10.375617742538452,0.09307117977415377
0.9690709757436273,10.440408945083618,0.09281925457526854
0.9724709616077875,10.478291273117065,0.09280816272999999
0.9758709426117259,10.499156713485718,0.09294755466962994
0.9792709218790777,10.525599479675293,0.09303706869808498
0.9826709050429674,10.556248426437378,0.09308902797152231
0.9860709012485573,10.58550477027893,0.09315294099315531
0.9894709186153241,10.616321325302124,0.09320280427619454
0.9928709350621234,10.645736694335938,0.09326465265577912
0.9962709508330608,10.684242010116577,0.09324676003124253
0.9996709562649669,10.716546058654785,0.09328294310438046
1.0030709513900564,10.74932861328125,0.09331475364430852
1.0064709357526802,10.782328605651855,0.09334448731465211
1.0098709116121247,10.815707921981812,0.0933707639755754
1.0132709020008417,10.850249767303467,0.09338687345744508
1.016670893275141,10.883943319320679,0.09341016058677862
1.0200709045926457,10.9198637008667,0.09341425246101594
1.0234709213563131,10.952905416488647,0.09344287040181745
1.0268709272633108,10.986414432525635,0.09346733946456873
1.0302709228701405,11.020075798034668,0.09349036628712483
1.0336709077177322,11.054059982299805,0.09351052096450414
1.037070884038678,11.08856987953186,0.09352611701108396
1.0404708853333373,11.122735738754272,0.09354451186933155
1.0438708900067086,11.15748143196106,0.09355793208102485
1.0472708961607906,11.19359040260315,0.09355987297134262
1.0506709132306962,11.226988554000854,0.09358439337290307
1.0540709194072946,11.263458490371704,0.09358323824856653
1.0574709152550423,11.299205303192139,0.09358807870818103
1.060870900326652,11.33811068534851,0.0935668145926239
1.0642708768484417,11.395431756973267,0.09339451979932017
1.067670867851148,11.470388412475586,0.09308062024211078
1.0710708597168255,11.507709980010986,0.09307419648021081
1.074470871589502,11.549501180648804,0.09303179893082988
1.0778708888855935,11.587233781814575,0.09302227858535513
1.0812708953044439,11.615120649337769,0.09309166283744906
1.0846708914113115,11.665983200073242,0.09297723756404018
1.0880708767427723,11.704705476760864,0.09296012436221357
1.091470853540143,11.739757061004639,0.09297218399566605
1.0948708553299356,11.760976791381836,0.09309353081388877
1.0982708604834475,11.820846319198608,0.0929096640652295
1.1016708671633202,11.847689390182495,0.09298613686447689
1.105070884772603,11.87814736366272,0.09303394299966368
1.1084708915317865,11.910553455352783,0.09306627905134189
1.1118708880004282,11.935665845870972,0.09315532977869594
1.115270873704934,12.01189398765564,0.09284721250879115
1.1186708508967076,12.051559686660767,0.09282374065946876
1.1220708351126834,12.094102144241333,0.09277834945746369
1.1254708186375122,12.125135898590088,0.09282129520448361
1.128870828610523,12.169277667999268,0.09276399630349784
1.132270841936602,12.206607341766357,0.09275884856739865
1.1356708566082478,12.247690439224243,0.0927253070481899
1.139070870440645,12.291290760040283,0.09267300665800146
1.142470879126583,12.316585779190063,0.09275873197399284
1.1458708787738088,12.360405683517456,0.09270495711170891
1.1492708681109396,12.391874313354492,0.09274390935940915
1.1526708469424063,12.419384002685547,0.09281223985772198
1.1560708153751087,12.44322419166565,0.09290765781986261
1.1594708106317138,12.476957321166992,0.09292897144600205
1.1628708063885271,12.502283096313477,0.09301267595927504
1.166270809637076,12.53169846534729,0.09306566167882617
1.1696708319627123,12.562103271484375,0.0931110664101793
