Distance,Time,Velocity
0.0,0.03413963317871094,0.0
2.1500726050548687e-06,0.06832385063171387,3.146884411776508e-05
0.0011511507472084358,0.10468339920043945,0.010996497591793938
0.003459917286390068,0.13909053802490234,0.024875288682617756
0.006856185488429004,0.1718616485595703,0.03989363273245065
0.010252761281515931,0.20625782012939453,0.049708472993091495
0.013649725698837175,0.2414557933807373,0.056530951308812596
0.017047079237484292,0.27533721923828125,0.061913457558135196
0.02044482200671854,0.3104512691497803,0.06585517289946956
0.023842951267676403,0.34426069259643555,0.0692584189262253
0.027241463645720197,0.37860822677612305,0.07195158931881451
0.030640357429840344,0.41318559646606445,0.07415640257526954
0.03403963078736716,0.4484283924102783,0.07590873228255238
0.037439281010971937,0.4828345775604248,0.07754059620199127
0.04083930338006043,0.51961350440979,0.07859553886392598
0.04423969569138133,0.552788257598877,0.08003009304782166
0.047640457817792255,0.5859119892120361,0.08130992144718106
0.051041587232470445,0.6198360919952393,0.08234691056496671
0.05444308153078432,0.6534585952758789,0.08331527341498873
0.05784493838736844,0.6865825653076172,0.08425052034557785
0.06124715531938809,0.7203168869018555,0.08502807088532569
0.06464972976454071,0.7540030479431152,0.08574200056737454
0.06805265940977673,0.7888777256011963,0.08626515517080222
0.07145594179641293,0.8246612548828125,0.08664884080987544
0.07485957426600631,0.8589155673980713,0.08715591742361802
0.0782635544104401,0.8927948474884033,0.08766129713966195
0.08166787181232847,0.9278671741485596,0.08801677016677469
0.08507229155803137,0.9617016315460205,0.08846017181157333
0.08847626586956231,0.9959216117858887,0.08883858410393011
0.09187916172672124,1.0329065322875977,0.08895205795943097
0.09528079599557734,1.0657427310943604,0.0894031863559961
0.09868122793390693,1.0982036590576172,0.08985694695152134
0.10208045795914084,1.1330187320709229,0.09009600200745045
0.1054783871639029,1.1664385795593262,0.09042772505325744
0.1088754986794963,1.200303077697754,0.09070667292491275
0.11227185033188555,1.2350540161132812,0.09090440488198678
0.11566826697230229,1.272289514541626,0.09091347971532616
0.11906500784116596,1.3044955730438232,0.09127283396090612
0.12246215346195427,1.3389723300933838,0.09145980892182694
0.12585968814359969,1.3723151683807373,0.09171339867365
0.12925760688422497,1.4061484336853027,0.09192315959522161
0.13265590697946972,1.440598964691162,0.09208385555650368
0.1360545856669338,1.4751851558685303,0.09222881963371593
0.1394536396770712,1.5095787048339844,0.09237917786632237
0.14285306496451575,1.5451900959014893,0.09245015570797645
0.14625285695598558,1.57912278175354,0.09261652016290893
0.14965300464695264,1.6125097274780273,0.09280750503192972
0.15305350126970566,1.646254301071167,0.0929707525563447
0.15645432598416417,1.6801536083221436,0.09311906078659354
0.1598554605595797,1.714189052581787,0.09325427689484833
0.16325723163193195,1.7483575344085693,0.0933774862514939
0.16665938841555106,1.7826106548309326,0.09349174928574489
0.17006194244050396,1.8196063041687012,0.09346084482719895
0.17346491103849748,1.8530995845794678,0.09360798118027891
0.176868272856606,1.8866794109344482,0.09374580113163232
0.18027171533895966,1.9212517738342285,0.09383034425477338
0.1836746163929241,1.9582185745239258,0.09379678999193353
0.18707681582227992,1.9932174682617188,0.09385670093761984
0.19047792466776733,2.0270321369171143,0.09396887261859727
0.19387790080943965,2.0618820190429688,0.09402958026639609
0.1972768052284014,2.0961780548095703,0.09411261833209261
0.20067489706101932,2.129716157913208,0.09422612319270265
0.20407243851358545,2.1634747982025146,0.0943262379035501
0.20746977191111152,2.1991844177246094,0.09433941521183137
0.21086728088891535,2.2339067459106445,0.09439394964670113
0.21426521277995084,2.2668495178222656,0.09452114535851183
0.21766365886693928,2.301384687423706,0.09457943300674504
0.22106261188305054,2.335228681564331,0.09466422437693098
0.22446206778018113,2.3699378967285156,0.09471221507113357
0.2278620235718094,2.4043707847595215,0.09476991860662604
0.23126247453401794,2.43932843208313,0.09480579633818524
0.23466342296690557,2.473235845565796,0.09488113452165424
0.23806486637713786,2.507387161254883,0.09494539577126673
0.24146680225862488,2.5422654151916504,0.0949809570691193
0.2448690744579319,2.575979471206665,0.09505862806555208
0.2482713569991357,2.6102755069732666,0.09511308531834543
0.2516733487561193,2.644784688949585,0.09515835062402568
0.2550747784181693,2.6784462928771973,0.09523236627760304
0.25847552004402236,2.7134177684783936,0.09525828386867533
0.26187550867548204,2.7470781803131104,0.09532874257172892
0.2652747919638375,2.7808027267456055,0.09539504165917251
0.26867346786840374,2.8143985271453857,0.09546390295368594
0.27207178746365746,2.8487725257873535,0.0955049183467049
0.2754699515137122,2.8828916549682617,0.09555334867995408
0.2788682304251216,2.9185144901275635,0.09555142911520467
0.2822668340269571,2.9534456729888916,0.09557204204176292
0.2856659514031275,2.985400676727295,0.0956876420743245
0.28906560002935033,3.020472288131714,0.0957021195543394
0.29246574845204254,3.054403305053711,0.0957521712892789
0.29586639836570344,3.0882108211517334,0.09580511678129587
0.29926751645849736,3.1225316524505615,0.09584130755684489
0.30266891810324403,3.1560564041137695,0.09590098507388191
0.3060703998670394,3.1927454471588135,0.09586432897098258
0.30947173944130646,3.226127862930298,0.0959266813312888
0.3128727948086992,3.260572671890259,0.09595639364397812
0.3162734375981735,3.2942495346069336,0.09600773538119689
0.3196735957753932,3.3283681869506836,0.09604514218971227
0.3230732937694967,3.3622543811798096,0.09608829587014497
0.32647258374477217,3.3953490257263184,0.09615287891498417
0.3298715788886559,3.4320859909057617,0.09611401921826543
0.33327043333512196,3.464607000350952,0.09619285341782283
0.3366693140223705,3.498257875442505,0.09623913559539524
0.3400683498202712,3.5323281288146973,0.096273148308672
0.34346768443791,3.566470146179199,0.09630465708674749
0.34686738756303087,3.601480007171631,0.09631245678785208
0.3502674917781601,3.635387420654297,0.09634942614042466
0.35366794136317614,3.671374797821045,0.09633120039203774
0.3570686590497721,3.7038042545318604,0.09640592064574523
0.36046953123503445,3.7376887798309326,0.0964418260771673
0.3638704187944959,3.77178692817688,0.09647162624066234
0.36727123016281477,3.8057124614715576,0.0965052493799812
0.3706718425268887,3.8397207260131836,0.09653614650036295
0.3740721899717197,3.87414813041687,0.0965559853106258
0.3774722528985652,3.908482789993286,0.09657769348888795
0.3808720260224137,3.9449706077575684,0.09654622654816483
0.38427156463216644,3.978867292404175,0.0965781305060757
0.3876709448913169,4.01247239112854,0.09661647660142064
0.3910702440014041,4.046212434768677,0.09665094216037169
0.39446956855103515,4.080273628234863,0.0966772340515025
0.39786901625989385,4.113847732543945,0.0967145704281712
0.4012686480428716,4.148154973983765,0.09673424704706853
0.4046685058344492,4.184614658355713,0.09670388766297018
0.40806859881101676,4.216430425643921,0.09678058395774376
0.41146889385649454,4.250792503356934,0.09679816023283883
0.4148693283105133,4.284411668777466,0.09683227485674692
0.4182698453793652,4.319088697433472,0.09684215228733628
0.4216703834094951,4.352916479110718,0.09687077283312372
0.42507084073896234,4.387549877166748,0.0968811415571761
0.42847119538858014,4.4226908683776855,0.09688020441404947
0.43187138351164284,4.455726146697998,0.09692502844495716
0.4352714003522119,4.48951268196106,0.09695292812093838
0.43867125315915795,4.523464202880859,0.0969768375484836
0.4420709633171288,4.5571863651275635,0.09700524136996852
0.4454705692483817,4.591768503189087,0.09701503221231478
0.4488701438969138,4.625649690628052,0.09703937261102193
0.45226973028433426,4.658905267715454,0.09707639548251852
0.45566939621465663,4.693351984024048,0.09708826394562652
0.45906919409056324,4.728518724441528,0.0970852016970246
0.4624691209381899,4.761441230773926,0.09712796998294991
0.4658691876715694,4.796244144439697,0.09713208369754346
0.4692693764347897,4.830369234085083,0.09714979408270302
0.47266966242579334,4.864655494689941,0.09716405672338775
0.47607000663132887,4.898151397705078,0.09719381210927475
0.47947035242493175,4.932253360748291,0.09721121713670229
0.4828706623831108,4.968401908874512,0.09718832559028928
0.48627088705209426,5.001166105270386,0.09723150097727143
0.48967100470245567,5.03515625,0.09725040900219445
0.493071014353393,5.069373846054077,0.0972646779122814
0.4964709092524795,5.102979898452759,0.0972903909347186
0.49987070429810115,5.136904716491699,0.09730970922884723
0.5032704564464769,5.170551776885986,0.0973339941582746
0.5066701713347578,5.204896688461304,0.09734490455074565
0.5100699078854293,5.2398176193237305,0.0973449736121275
0.5134697032431587,5.274895191192627,0.09734216219129574
0.5168695719936147,5.308316469192505,0.09736977344763326
0.5202695402068367,5.342939376831055,0.09737515317185073
0.5236695818333402,5.377426624298096,0.09738293396085042
0.527069719493569,5.411180734634399,0.09740382835857725
0.5304699110810555,5.445160865783691,0.0974204296542317
0.5338701501945569,5.48081111907959,0.09740714259173583
0.5372703729919,5.514251470565796,0.09743305612008528
0.5406705667332234,5.54841685295105,0.09744591674752334
0.5440707039501717,5.582422494888306,0.09746139860398681
0.5474707653566522,5.6161041259765625,0.09748230322589588
0.5508707612123418,5.649608373641968,0.0975060083425266
0.5542706692447694,5.683891296386719,0.09751605728229222
0.5576705393576238,5.719959020614624,0.09749554801840184
0.5610703584671339,5.754228830337524,0.09750574316910218
0.564470185033663,5.78765344619751,0.09753005951047744
0.5678700278209093,5.82190728187561,0.09754020466604922
0.5712699022636818,5.855469226837158,0.09756176322221989
0.574669814629669,5.889796018600464,0.09757041038684772
0.5780697857460708,5.923984527587891,0.0975812450309433
0.5814698343526536,5.9574503898620605,0.09760380637699562
0.5848699265795065,5.994072198867798,0.09757472168753337
0.5882700666802303,6.027154445648193,0.0976032839352542
0.5916702121844518,6.060772180557251,0.09762290918680454
0.59507035941343,6.094994068145752,0.09763263963183234
0.5984704847535779,6.129023313522339,0.0976453268554526
0.6018705657324519,6.163475513458252,0.09765116522621659
0.6052706098296096,6.199528455734253,0.0976317173396897
0.6086705878775802,6.234301805496216,0.09763251874347353
0.6120705381369022,6.266239881515503,0.09767748278236543
0.6154704484477145,6.30045485496521,0.09768666907638893
0.6188703433021739,6.334600448608398,0.09769682371018823
0.6222702279560609,6.369031190872192,0.09770249341028044
0.6256701129589297,6.403509140014648,0.09770738188678504
0.6290700314002304,6.439026117324829,0.09769645594504672
0.63246998408488,6.472550630569458,0.09771572602271555
0.6358699849125266,6.505673885345459,0.09774083302036912
0.6392700310571303,6.539669513702393,0.09775265091266234
0.6426701150505693,6.573765516281128,0.0977628595755172
0.6460702027745987,6.606846570968628,0.09778798339491007
0.6494703044583571,6.641331672668457,0.09779218031395244
0.6528703869239194,6.675260066986084,0.09780448707202113
0.6562704407973778,6.711041688919067,0.0977896534126704
0.6596704736786821,6.744852304458618,0.09780354615661688
0.6630704607559036,6.779054880142212,0.09781163782848644
0.6664704324839572,6.812481164932251,0.09783079268015638
0.6698703695599525,6.8467185497283936,0.09783816359539504
0.6732703194963637,6.8810951709747314,0.09784348316185149
0.6766702715345075,6.91553807258606,0.09784781233681608
0.6800702286494251,6.949296951293945,0.09786173096586373
0.6834702000181728,6.984061002731323,0.09786143044152702
0.686870181640723,7.017390727996826,0.09788113677358193
0.69027015756766,7.051814079284668,0.09788547312887758
0.6936701519657371,7.084639072418213,0.0979118547713067
0.6970701702479616,7.119275331497192,0.09791307932198864
0.7004701818177059,7.1532275676727295,0.09792365406957139
0.7038702078372667,7.1875059604644775,0.09792968683559611
0.7072702464051764,7.223453998565674,0.0979130270014339
0.7106702808594967,7.257431745529175,0.09792310913530723
0.7140703217920152,7.291394233703613,0.09793330313855601
0.7174703673062004,7.3249828815460205,0.09794840191555099
0.7208704046422337,7.359743595123291,0.0979477607236068
0.7242704249558781,7.393147230148315,0.09796510233184527
0.7276704415464331,7.428008556365967,0.09796305914629078
0.7310704293583937,7.463902950286865,0.09794747255258672
0.7344704206689738,7.4966583251953125,0.09797304196197823
0.7378703868210337,7.530789852142334,0.09798047765349963
0.7412703539419613,7.564410448074341,0.0979944648734212
0.7446703218338322,7.598138093948364,0.0980069475740293
0.7480703001383026,7.632521390914917,0.09801090122442889
0.7514702888272827,7.666399717330933,0.09802127680982803
0.7548702918423873,7.700104713439941,0.09803376966092671
0.7582702953197843,7.736081838607788,0.09801735699531396
0.7616702979552947,7.769627332687378,0.09803176720598854
0.765070315025448,7.803970098495483,0.0980360387558308
0.7684703381122536,7.838459014892578,0.09803844565012185
0.771870373066865,7.872509956359863,0.09804628731441667
0.7752704135115803,7.906406402587891,0.09805597815688075
0.7786704336482909,7.943119525909424,0.0980308090679448
0.7820704489736614,7.976382732391357,0.0980482601214389
0.7854704484776536,8.00972032546997,0.0980646535160472
0.7888704393216376,8.043201684951782,0.09807915681109354
0.7922704226986459,8.077710628509521,0.09808106023288353
0.7956703867220097,8.112228155136108,0.09808284129906351
0.7990703686382725,8.145949840545654,0.09809419211753298
0.8024703613733453,8.17983365058899,0.09810350621440368
0.805870362784268,8.215827703475952,0.09808754417322073
0.8092703687676979,8.249688148498535,0.09809708612015682
0.8126703811852555,8.28399920463562,0.0981012142939965
0.8160704038179563,8.317724466323853,0.09811221892742394
0.8194704340127185,8.351651668548584,0.09812076299814507
0.8228704474244105,8.385754108428955,0.09812718531745414
0.8262704601457631,8.419126510620117,0.0981420648690197
0.8296704482857363,8.456186771392822,0.09811401648465257
0.8330704284391243,8.489474296569824,0.0981298016033486
0.8364704130564071,8.522544384002686,0.09814796795033547
0.8398703912725911,8.557291746139526,0.09814675205522636
0.843270377739488,8.59238886833191,0.09814155186195582
0.8466703745069483,8.62665581703186,0.09814583918316783
0.8500703815744765,8.660318374633789,0.09815694352119272
0.8534703994004524,8.695792198181152,0.09814751548213949
0.8568704257136303,8.729350328445435,0.09815970186480372
0.8602704564307171,8.76368761062622,0.09816306726721005
0.8636704728495923,8.79758095741272,0.09817135835753527
0.8670704750405078,8.831254720687866,0.09818202537056611
0.8704704780056315,8.865395784378052,0.09818743564043814
0.8738704610349104,8.900215864181519,0.09818531082507326
0.8772704389177872,8.935680150985718,0.0981761235960324
0.880670416788569,8.969066143035889,0.09818975607314184
0.8840704084765431,9.002115726470947,0.09820695882379203
0.8874704088170555,9.037397384643555,0.09819977710895562
0.8908704137282574,9.071358919143677,0.09820694139311537
0.894270425076385,9.105276584625244,0.09821452613382545
0.8976704466484983,9.139401912689209,0.09821982392547661
0.9010704757930644,9.174598217010498,0.09821361704127837
0.9044704881593282,9.208956718444824,0.0982163903917307
0.9078704998585772,9.242468118667603,0.09822814514500658
0.9112704870034606,9.276296854019165,0.09823645160823331
0.914670466167392,9.309954643249512,0.09824650078511434
0.918070454194249,9.344544410705566,0.09824667890094917
0.9214704528904503,9.379212141036987,0.09824604018270669
0.9248704620810718,9.415224552154541,0.09823137589102199
0.9282704769580152,9.44872522354126,0.09824293277629165
0.9316704966858949,9.482087850570679,0.09825583894266729
0.9350705090770625,9.517060279846191,0.09825203178099177
0.9384705001623538,9.550326347351074,0.09826580433271294
0.941870502572063,9.584589719772339,0.09826925618204084
0.9452704815825684,9.619221210479736,0.09826892020663129
0.948670479881652,9.653110980987549,0.09827613934514193
0.9520704886432518,9.6887366771698,0.09826569968473572
0.955470503065763,9.721389055252075,0.09828538880969492
0.9588705122646966,9.756191730499268,0.09828327883995233
0.9622705232945623,9.791572570800781,0.09827538082739913
0.965670509752418,9.82520866394043,0.09828498740149229
0.9690704984788798,9.858684301376343,0.09829612845434058
0.9724704814610429,9.89207673072815,0.09830802044228179
0.9758704793825822,9.928651809692383,0.09828831729499611
0.9792704877744346,9.96052622795105,0.0983151357030137
0.9826705018458523,9.995388984680176,0.09831238217461878
0.9860705207689208,10.03056025505066,0.09830662452502666
0.9894705383058524,10.062665462493896,0.09833085895520027
0.9928705419333141,10.097192287445068,0.09833134931656769
0.9962705422515405,10.131391525268555,0.09833501545831655
0.9996705204679907,10.164968013763428,0.0983446794042471
1.003070504240637,10.200159311294556,0.09833870958563803
1.0064704885489755,10.234179973602295,0.09834402865154142
1.0098704832324648,10.268120288848877,0.09835008305553049
1.0132704882573813,10.303244352340698,0.09834479835734322
1.0166705040592687,10.337245225906372,0.09835023566156396
1.0200705283970588,10.371412992477417,0.09835405543458113
1.0234705571824712,10.40698528289795,0.09834457620156004
1.0268705717000104,10.440003156661987,0.09835922042272013
1.0302705720186924,10.47304105758667,0.09837358283555707
1.0336705731315543,10.507155656814575,0.09837777290956488
1.0370705543230283,10.541279792785645,0.09838184496656563
1.0404705419929106,10.575740814208984,0.09838275731899476
1.0438705347840138,10.609565019607544,0.09838956949270172
1.0472705365919865,10.644144296646118,0.09838935920118753
1.050670548680499,10.679877519607544,0.0983785204232481
1.0540705700379136,10.713578939437866,0.09838640999393429
1.057470570051271,10.74790096282959,0.09838856663346772
1.0608705708645185,10.781309366226196,0.09839904735391683
1.0642705532722634,10.815927743911743,0.09839845258501644
1.0676705450141237,10.849582433700562,0.0984066024234966
1.071070537427886,10.883824348449707,0.09840939206083837
1.0744705388427813,10.92017388343811,0.09839317123625277
1.0778705505433488,10.953159093856812,0.09840727604768228
1.0812705727302263,10.986776351928711,0.09841563513217515
1.0846705975079844,11.020916223526001,0.09841927617529407
1.0880706034997591,11.054922819137573,0.09842407959792909
1.0914705953963866,11.088575839996338,0.09843199082964896
1.0948705868396538,11.123010873794556,0.09843293324644072
1.0982705626350089,11.15765380859375,0.09843203432150839
1.1016705514099119,11.191979885101318,0.09843392882401868
1.1050705490694488,11.22514271736145,0.0984460132841147
1.1084705513170403,11.259398937225342,0.0984484658103962
1.1118705600187897,11.293892860412598,0.09844883192722
1.1152705789599215,11.327908277511597,0.09845335534486807
1.118670608130616,11.362302780151367,0.09845456768541712
1.1220706313672737,11.395928382873535,0.09846241514237548
1.1254706412468443,11.432095766067505,0.09844832166184625
1.1288706299155447,11.464845657348633,0.09846365696096147
1.1322706195379206,11.49879002571106,0.09846867513940047
1.1356705963042935,11.53289794921875,0.09847226614722841
1.1390705767856895,11.567181825637817,0.09847433834410922
1.1424705596197229,11.60079288482666,0.098482109883543
1.1458705527666917,11.635430335998535,0.09848114935822481
1.149270556237406,11.668230533599854,0.09849570189138489
1.1526705704843843,11.704732656478882,0.09847901736109713
1.1560705932427116,11.738022089004517,0.0984893864125243
1.1594706204227991,11.771708965301514,0.09849637158380947
1.1628706452862367,11.805612325668335,0.09850151040093591
1.1662706702863606,11.839385271072388,0.09850770488362713
1.169670670732779,11.87389087677002,0.09850778341083738
1.173070668314338,11.907975912094116,0.09851134038010023
