Distance,Time,Velocity
0.0,0.03264808654785156,0.0
1.941165633430862e-06,0.0819549560546875,2.3685762605199212e-05
0.0011517171596801207,0.1208653450012207,0.009528927912864426
0.003460842010470606,0.14755916595458984,0.023453927704739485
0.006857462273812472,0.16804146766662598,0.04080815508834314
0.010254384797686285,0.23824429512023926,0.04304147048940253
0.013651693967133317,0.25962162017822266,0.052583039724356656
0.017049391898094235,0.3031001091003418,0.056250035503781375
0.02044747624580622,0.32445359230041504,0.06302126631063366
0.02384594410217279,0.3600955009460449,0.06622116643924901
0.027244793706350766,0.3875398635864258,0.07030191282573661
0.030644022953092695,0.42224979400634766,0.07257320995313979
0.03404362908676591,0.4538750648498535,0.07500660803657035
0.037443608071857995,0.4941532611846924,0.07577326917177472
0.04084395665864876,0.5268428325653076,0.07752588463578601
0.0442446752443887,0.552135705947876,0.0801336967846191
0.04764576122422597,0.5862777233123779,0.08126824426320488
0.051047212219493085,0.6162586212158203,0.08283407397819723
0.054449025914336126,0.6466081142425537,0.08420714914491681
0.057851199792265155,0.6834657192230225,0.08464389385620037
0.061253731296465525,0.7184929847717285,0.08525306801141054
0.06465661811777403,0.7517969608306885,0.08600276602120407
0.06805985779271598,0.7870981693267822,0.0864693381905953
0.0714634476438563,0.8334870338439941,0.08574032317488012
0.07486738529346001,0.8638229370117188,0.0866698279076194
0.07827162997439943,0.8936214447021484,0.08758924759296485
0.0816759131016918,0.9300463199615479,0.0878191885164049
0.08507938777467189,0.9608149528503418,0.08854919203981623
0.08848174584891949,0.9950520992279053,0.08892172170439666
0.09188289058827645,1.0278990268707275,0.08938902381102456
0.09528283320050646,1.060925006866455,0.08981109181499411
0.09868157387297921,1.095412254333496,0.09008624240106027
0.10207915488971328,1.1312706470489502,0.09023407011929331
0.10547590937959303,1.204397201538086,0.08757568453737198
0.10887249743131153,1.2387783527374268,0.08788698736196619
0.112269095918773,1.3116793632507324,0.08559187486226567
0.11566611463902762,1.3717007637023926,0.08432313934624507
0.11906353450031537,1.4219107627868652,0.08373488520964391
0.1224613407486063,1.4556982517242432,0.08412549826418593
0.12585952928159885,1.4854669570922852,0.08472724935461474
0.1292580975291192,1.5327379703521729,0.0843315035116015
0.13265704252787447,1.572709321975708,0.08434937128828406
0.13605636083092265,1.5972535610198975,0.08518144153896662
0.139456048304294,1.6187899112701416,0.08614833051119859
0.14285609706424482,1.6492607593536377,0.08661825988040339
0.1462565010375801,1.6770031452178955,0.08721301534504682
0.14965724930457333,1.7450149059295654,0.08576273405805164
0.15305831616060728,1.7760274410247803,0.08618015275275902
0.15645976205362364,1.809826135635376,0.08645016168842941
0.15986179692768668,1.8366971015930176,0.0870376486079464
0.16326421300681854,1.8939650058746338,0.08620233874459737
0.1666670297442892,1.9347915649414062,0.08614211099754128
0.17007024741986387,1.97263503074646,0.08621475578049935
0.17347361314380796,2.0241780281066895,0.08570076877381488
0.1768764562899004,2.052302360534668,0.08618440425309473
0.18027862064933847,2.070190668106079,0.0870830998452268
0.18367977272127495,2.092705488204956,0.08777143929546843
0.18707987536813073,2.1183478832244873,0.0883140473996949
0.1904789287561957,2.152557373046875,0.08848959435008182
0.1938771782011067,2.2145678997039795,0.08754627854355795
0.1972748037186498,2.2696568965911865,0.08691833731122013
0.2006723061742155,2.315670967102051,0.08665838498867008
0.20406987263783652,2.3520309925079346,0.08676325834475504
0.20746792606424397,2.371523141860962,0.08748298610379213
0.2108664945284266,2.4204087257385254,0.08712020093386753
0.2142655656858591,2.444469690322876,0.0876531897834896
0.21766513744274105,2.4672091007232666,0.08822322249821961
0.2210652058579854,2.494950532913208,0.08860504564788323
0.22446576926653075,2.5248944759368896,0.08890104968970645
0.2278668287322496,2.557746648788452,0.08908889738558941
0.2312683819810567,2.587387800216675,0.08938296066855138
0.2346703652387811,2.618309736251831,0.08962666333537642
0.23807250212425451,2.652048110961914,0.08976929986307984
0.24147450631043982,2.6852807998657227,0.08992523475478421
0.24487608169872987,2.726818799972534,0.08980284340902901
0.24827708798223017,2.7584524154663086,0.09000593470098328
0.2516774053892851,2.790851593017578,0.09017942982670807
0.25507702346016503,2.8230955600738525,0.09035366250708572
0.25847605292739395,2.858659267425537,0.0904186294158007
0.2618746392491695,2.892078399658203,0.09054894199276162
0.2652729936482273,2.9255928993225098,0.09067324223737949
0.26867135459539615,2.9593777656555176,0.09078643413267791
0.2720699410993773,2.992913007736206,0.09090472739973385
0.27546892392048816,3.0265979766845703,0.09101602724992415
0.27886840333148005,3.060929536819458,0.09110578991676033
0.28226839974532203,3.0949268341064453,0.091203577620864
0.28566889692378733,3.1303863525390625,0.09125675388026169
0.2890698492879263,3.164912223815918,0.091335818767004
0.2924710750041402,3.198082685470581,0.0914520053946337
0.2958723941183854,3.232637882232666,0.09152661228916771
0.2992736300720241,3.2666683197021484,0.0916143301929446
0.30267463213609935,3.3005926609039307,0.09170311614678502
0.306075290635372,3.3350067138671875,0.09177651408097316
0.30947550708409,3.3714194297790527,0.09179383150923218
0.3128753161129194,3.404050827026367,0.09191264526042164
0.31627473439474857,3.4380223751068115,0.09199321583383314
0.3196738731160464,3.4720988273620605,0.09206934739208439
0.32307284683925747,3.506121873855591,0.09214535559882939
0.326471825253728,3.5400760173797607,0.09222169909655524
0.3298709310456045,3.574068546295166,0.0922956364078536
0.33327027866042946,3.6092138290405273,0.09233874590052371
0.3366699491359364,3.64424729347229,0.09238394708805629
0.3400699775931705,3.678368091583252,0.0924513178469849
0.34347029980744254,3.712141752243042,0.09252618103818434
0.3468708881174523,3.746417760848999,0.09258734883822613
0.35027163514132514,3.7802133560180664,0.09265922374029387
0.35367244113709684,3.8142874240875244,0.09272307034431324
0.3570731878460774,3.8498847484588623,0.09274905904365487
0.36047379584953965,3.885258674621582,0.0927798702835788
0.3638741666956307,3.9195570945739746,0.09283553164702171
0.36727428790333083,3.953686475753784,0.0928941356770857
0.3706741322950578,3.9914565086364746,0.09286688493110605
0.3740737533194826,4.029186248779297,0.09284101806731171
0.37747321534238953,4.066383361816406,0.09282774931819922
0.3808725820058112,4.123735427856445,0.0923610616318788
0.3842719560036336,4.17882227897644,0.09195699896999618
0.3876714270482031,4.22644305229187,0.09172522195418695
0.39107104102560597,4.246400833129883,0.09209470711632287
0.3944708496016588,4.271245002746582,0.09235500406743191
0.39787088112303204,4.29896354675293,0.09255041983864919
0.4012711214862069,4.326889514923096,0.0927389340777607
0.4046715336941587,4.361483097076416,0.0927830108903592
0.4080720199584647,4.398752450942993,0.09276994432159584
0.41147253650513266,4.43244743347168,0.09283190442325225
0.41487299361620966,4.463477611541748,0.09294837562160566
0.41827335864654536,4.495428562164307,0.09304415649420737
0.42167355695502007,4.5274598598480225,0.093136895744709
0.42507360040863573,4.559936046600342,0.09321920221349357
0.42847348717845934,4.593217134475708,0.09328396081309302
0.4318732353412524,4.626358270645142,0.0933505816187098
0.43527290415035075,4.659843444824219,0.09340934074380054
0.4386725093006459,4.694691181182861,0.09344012041919213
0.4420721316030991,4.730800628662109,0.09344552144614875
0.44547181509373673,4.764207601547241,0.0935038630451502
0.4488715887864204,4.799588918685913,0.09352292381517492
0.4522714821799747,4.835744619369507,0.09352675084792685
0.4556715032803013,4.874431610107422,0.0934819769212557
0.45907163537341766,4.908169507980347,0.09353214770333394
0.46247186390483147,4.943033456802368,0.09356033454889924
0.46587216259204867,4.975637197494507,0.09363065354255323
0.4692724858066604,5.009196519851685,0.09368218714257091
0.4726727658622216,5.0434815883636475,0.09371953829528697
0.47607299616119025,5.080508708953857,0.09370577306996092
0.4794731318870908,5.116267919540405,0.09371540729050833
0.4828731764212105,5.151278734207153,0.09373850675458174
0.48627311071352847,5.185214042663574,0.09378072085597773
0.4896729579258009,5.220256567001343,0.09380246959912975
0.49307275400379175,5.258394241333008,0.09376869275567998
0.49647252691441185,5.2941811084747314,0.09377701985292433
0.4998722914308097,5.328619480133057,0.0938089674623056
0.5032720868856145,5.362355709075928,0.09385279794733
0.5066719517281583,5.39472508430481,0.09391988355481704
0.5100718945270701,5.427944660186768,0.0939714618441816
0.5134719310046677,5.461072683334351,0.09402400604768342
0.5168720300378928,5.496518850326538,0.09403625169177514
0.5202721819774062,5.530566453933716,0.09407213281152298
0.5236723593536465,5.563633441925049,0.09412416630604854
0.5270725460600912,5.598318576812744,0.09414836594743527
0.5304726988321158,5.632004022598267,0.09418897726344089
0.5338728164305837,5.665797472000122,0.09422730322941063
0.537272879090434,5.6998655796051025,0.09426062274395904
0.5406728865090938,5.733908176422119,0.09429395621163686
0.544072833125293,5.772265195846558,0.09425638196886404
0.5474727391919476,5.805258750915527,0.09430634579476885
0.5508726058154721,5.838777303695679,0.09434725408465143
0.5542724734042062,5.872302532196045,0.09438758823567062
0.5576723423288965,5.910890340805054,0.09434658912195999
0.5610722467469401,5.945708751678467,0.0943659150119908
0.5644721975118147,5.979414701461792,0.09440258381373309
0.5678721884545961,6.012734889984131,0.09444490715872804
0.5712722391209348,6.047244071960449,0.0944681961440552
0.5746723111029727,6.0811896324157715,0.09449998204951263
0.5780724120305912,6.115103244781494,0.09453191367192476
0.5814725017077578,6.148963451385498,0.09456431255527126
0.5848725964940343,6.1837451457977295,0.09458226086362802
0.5882726517632103,6.218872308731079,0.0945947468542321
0.5916726855369536,6.252157926559448,0.09463495524057405
0.5950726855358967,6.2880859375,0.09463494797154189
0.5984726510588636,6.323118209838867,0.09464834140339669
0.6018725959689721,6.3583664894104,0.0946583681471281
0.605272521460256,6.391544580459595,0.09469894386885945
0.6086724587918733,6.426918029785156,0.09470674061362198
0.6120724107047163,6.4605393409729,0.09474014140320111
0.6154723633744674,6.493667125701904,0.09478039934298921
0.6188723316026684,6.527233123779297,0.09481388512815038
0.6222723364073357,6.561089754104614,0.09484283247581585
0.6256723581708665,6.5948991775512695,0.09487216427820855
0.6290724030830807,6.629885673522949,0.09488435156511649
0.632472453488875,6.663271903991699,0.09491920224807067
0.6358725162724556,6.7005393505096436,0.0948987063592263
0.6392725787262641,6.736530542373657,0.09489641213754707
0.6426726336679338,6.770578384399414,0.09492137852635499
0.6460726530834322,6.804588556289673,0.09494661546968171
0.6494726558201179,6.839909315109253,0.09495340155832811
0.652872623458487,6.876962184906006,0.09493619506756244
0.6562725973667425,6.912960529327393,0.09493365318412943
0.6596725496820982,6.9483137130737305,0.0949399490182602
0.6630725155649757,6.982458114624023,0.09496261985105792
0.6664724824195996,7.016129016876221,0.09499148046116347
0.6698724486937545,7.051677942276001,0.09499475928668778
0.6732724295138615,7.084085702896118,0.0950401304770514
0.67667242311263,7.117570877075195,0.09507069684295061
0.6800724128214722,7.1514809131622314,0.09509532655953895
0.683472407631094,7.1852216720581055,0.09512196544874627
0.6868724167955663,7.219080686569214,0.09514679868774187
0.6902724359580144,7.253235816955566,0.09516751604082625
0.6936724491770314,7.2872538566589355,0.0951898290935986
0.6970724721108006,7.323895692825317,0.09517782630269725
0.7004725090444638,7.357358455657959,0.09520706558830039
0.7038725461340098,7.390780448913574,0.09523656547495972
0.7072725956117206,7.424500465393066,0.09526197740958406
0.7106726378879304,7.4584434032440186,0.09528431060813927
0.7140726766533426,7.4924986362457275,0.09530501256269078
0.7174726822575067,7.527217626571655,0.09531711687526785
0.7208726785223174,7.563743352890015,0.09530633773379958
0.7242726575423555,7.597079277038574,0.09533567192478805
0.7276726338037792,7.6305482387542725,0.09536308677115128
0.7310725911261767,7.664474964141846,0.09538456248425249
0.7344725619633472,7.698808193206787,0.09540081315591487
0.7378725337300216,7.732833623886108,0.09542071763328672
0.7412725048720198,7.772565126419067,0.09537038195439794
0.7446724905369745,7.80561375617981,0.09540217000199469
0.7480724889611396,7.8387510776519775,0.09543261184729666
0.7514724834827864,7.872891187667847,0.09545063758278513
0.7548724830886292,7.906433343887329,0.09547572846765867
0.7582724970430438,7.940427303314209,0.0954951752692897
0.7616725210033797,7.974520206451416,0.09551327243326611
0.7650725390319809,8.009528875350952,0.09552029225919456
0.768472566764026,8.044025659561157,0.09553333110649849
0.7718726091983179,8.078367233276367,0.09554809615720666
0.7752726556690307,8.111958503723145,0.09557157563283933
0.7786726817811841,8.145652770996094,0.09559365021717761
0.7820727030671576,8.180036783218384,0.09560747998977286
0.7854727084878297,8.214157104492188,0.09562426168575076
0.7888727097729633,8.248071432113647,0.09564329264917716
0.7922726868721627,8.283746480941772,0.09564183171164478
0.7956726560133466,8.317217350006104,0.095665728395659
0.7990726294615669,8.350996732711792,0.0956858989456324
0.8024726119241897,8.385632038116455,0.09569613933411246
0.8058725990061437,8.419694900512695,0.09571280296119426
0.809272592574237,8.453678846359253,0.09573022671931364
0.8126725964144182,8.491255521774292,0.09570700049368036
0.8160726105178342,8.5260591506958,0.09571510073927127
0.8194726353545613,8.561997175216675,0.09571045383273245
0.8228726686388027,8.594687461853027,0.09574201182894324
0.8262726948431641,8.628062009811401,0.09576573440287843
0.829672721699815,8.661617279052734,0.09578727562880163
0.8330727207907453,8.695318222045898,0.09580704230911216
0.8364727227510805,8.732706546783447,0.09578619392165215
0.839872700038299,8.76571798324585,0.09581333801105284
0.8432726794013903,8.799126863479614,0.09583594968966253
0.8466726489750115,8.832661867141724,0.09585702042152298
0.8500726315818357,8.87083911895752,0.09582775881541793
0.8534726188460153,8.904245138168335,0.09585008112451636
0.8568726126280699,8.939421892166138,0.09585324677191609
0.8602726167204046,8.970531940460205,0.09589984433813531
0.8636726311137759,9.00496768951416,0.09591068628924454
0.867072656253853,9.03818130493164,0.09593441722404251
0.8704726898759605,9.071638107299805,0.09595540293604798
0.8738727164486468,9.105791330337524,0.09596889328412218
0.8772727436951465,9.139480352401733,0.09598715789838215
0.8806727444575098,9.173745393753052,0.09599925729977335
0.8840727418424472,9.207679033279419,0.09601472191277878
0.8874727316865954,9.24369502067566,0.09600843923361357
0.8908727021130851,9.27814507484436,0.0960184061497906
0.8942726903885547,9.31205153465271,0.0960339069281049
0.8976726894577027,9.345898866653442,0.09604990405584597
0.9010726971449579,9.379570007324219,0.09606759120528316
0.9044727093430225,9.415887594223022,0.09605814643517498
0.9078727279190315,9.451272964477539,0.09605824859056096
0.911272743228389,9.485071420669556,0.0960744208254008
0.914672733108797,9.518912553787231,0.09609004473361632
0.9180727340984436,9.552743434906006,0.0961056622481641
0.9214727133270395,9.58669924736023,0.09611991463910521
0.9248727119199014,9.620770454406738,0.09613291537334921
0.9282727191074598,9.654722690582275,0.09614701000298495
0.9316727308071837,9.690192699432373,0.09614594463758794
0.9350727488942518,9.723689317703247,0.09616439998672414
0.9384727637228041,9.757263898849487,0.09618195976368567
0.9418727531488525,9.791980504989624,0.09618817691363966
0.9452727536884182,9.832670450210571,0.09613591327757504
0.9486727325081367,9.871361017227173,0.09610353940581692
0.9520727306934561,9.916062355041504,0.09601318513385561
0.955472737502164,9.951165199279785,0.09601616678731414
0.9588727488566512,9.997804641723633,0.0959083302003129
0.9622727666265848,10.060783863067627,0.09564590391003379
0.9656727811622622,10.099870681762695,0.09561239065228573
0.9690727703270138,10.132848501205444,0.09563675704928669
0.9724727706196616,10.158212184906006,0.09573266957985481
0.9758727492100956,10.185076475143433,0.09581398348767457
0.9792727471755568,10.216028928756714,0.09585649707970569
0.982672753770891,10.250123262405396,0.09586935967639157
0.9860727649082739,10.28257966041565,0.09589741071535877
0.9894727824524608,10.315177917480469,0.09592396664100819
0.9928727967540766,10.346470594406128,0.09596246253199409
0.9962727856615017,10.380552053451538,0.09597493279080861
0.9996727856932262,10.414062261581421,0.09599258777058833
1.0030727639845198,10.447343349456787,0.09601223300818144
1.0064727616498905,10.480994939804077,0.09602836061179366
1.0098727679182584,10.514801979064941,0.09604296589977858
1.0132727786981588,10.549071550369263,0.09605326628604485
1.0166727958593857,10.58294129371643,0.0960671298878914
1.0200728097582084,10.619099855422974,0.09606019565182602
1.0234727982386187,10.653067588806152,0.09607305968039158
1.026872797833377,10.687275409698486,0.09608368442545334
1.0302727756807095,10.721577405929565,0.09609339527884371
1.0336727728965767,10.75551152229309,0.09610633308830263
1.037072778717402,10.790491104125977,0.09610987754958206
1.040472789061279,10.827078580856323,0.09609912602841635
1.0438728058005917,10.86082649230957,0.09611356985950806
1.0472728254621666,10.89511489868164,0.09612315567125332
1.050672825245394,10.929115533828735,0.09613521075820468
1.0540728245647566,10.963945865631104,0.09613991508923621
1.057472802003293,10.99804139137268,0.09615101129123033
1.0608727988371627,11.03453016281128,0.09614118437163101
1.0642728043072887,11.067704916000366,0.09616020777430469
1.0676728143356047,11.101113319396973,0.09617709355962165
1.0710728307871236,11.134785890579224,0.09619159643593354
1.074472844009297,11.169118642807007,0.09620032505440931
1.0778728318661341,11.205435514450073,0.09619196241646773
1.0812728308541981,11.243970155715942,0.09616468345965204
1.0846728081411734,11.277585506439209,0.09617952420062374
1.0880728048086077,11.312642812728882,0.09618201713080857
1.0914728101089408,11.347371816635132,0.0961872782302641
1.0948728199528002,11.381255626678467,0.09619965106366128
1.098272836204795,11.413922786712646,0.09622220657417918
1.1016728553826627,11.447001457214355,0.09624117368206891
1.1050728546900852,11.482551336288452,0.09623931322629575
1.1084728535237032,11.51727843284607,0.09624433931912725
1.1118728366311204,11.55168080329895,0.09625203947061883
1.1152728326805874,11.586163997650146,0.09625902351345812
1.118672837552571,11.62082815170288,0.09626446781149965
1.1220728469365655,11.654959440231323,0.09627428157864915
1.1254728627080544,11.690650224685669,0.09627119459373915
1.1288728752233113,11.723828315734863,0.09628875865643825
1.1322728623334135,11.757635831832886,0.09630106583739162
1.1356728605625281,11.791443586349487,0.09631330144150069
1.1390728370584269,11.826372146606445,0.09631633631496042
1.1424728329274698,11.862242698669434,0.09631170613762766
1.1458728374105902,11.89776062965393,0.09630995891400113
1.1492728464275879,11.932008266448975,0.09631847554607982
1.152672861850701,11.964980840682983,0.09633720916053755
1.1560728817238268,11.998633623123169,0.09635037772100156
1.1594728935479124,12.03236436843872,0.09636284757044485
1.1628728978537688,12.066380977630615,0.09637296385797636
1.166272876969881,12.100280284881592,0.09638395553754675
1.169672867385275,12.134291648864746,0.09639399655394855
1.1730728435782023,12.171507835388184,0.09637859659158571
