Distance,Time,Velocity
0.0,0.07878828048706055,0.0
1.5202562478287153e-06,0.11255693435668945,1.350655343020511e-05
0.0011525528214234053,0.14781928062438965,0.007797039848624714
0.003462089643416773,0.18334460258483887,0.018882964617487247
0.006859125252200124,0.21648716926574707,0.03168374955182799
0.010256460638589577,0.2510857582092285,0.040848436453504146
0.013654179950747128,0.2857215404510498,0.047788416404280096
0.017052284886748963,0.3193821907043457,0.05339147073023361
0.02045077402023052,0.35361599922180176,0.05783328261514264
0.023849644248575694,0.3893895149230957,0.06124880957127464
0.027248893042149464,0.4233701229095459,0.06436187054222355
0.030648518638952457,0.45556116104125977,0.06727640821904185
0.03404851679193271,0.4894862174987793,0.0695597047980572
0.037448884119332095,0.5233159065246582,0.07156076024524115
0.040849620872890444,0.5580239295959473,0.0732040665397069
0.04425072481470747,0.5926823616027832,0.07466178796858543
0.04765219344281466,0.6260902881622314,0.07611073729108397
0.05105402429297133,0.6626977920532227,0.07703967767086067
0.0544562149754563,0.6956100463867188,0.07828554986852765
0.0578587629887998,0.7295174598693848,0.07931100511173375
0.061261665962369115,0.7638320922851562,0.08020305323790809
0.06466492142800831,0.7984654903411865,0.0809864949834924
0.0680685267685099,0.8320136070251465,0.08181179513624544
0.07147253593259555,0.8671731948852539,0.08242013977617578
0.07487645782517967,0.9025728702545166,0.08295890591533651
0.07828006283520406,0.9355676174163818,0.08367119743987984
0.08168263672489647,0.9696769714355469,0.08423695635874529
0.08508402258829503,1.0035443305969238,0.08478352175801315
0.08848420478142278,1.0371637344360352,0.08531363163168897
0.09188318483958903,1.0711495876312256,0.0857799749918986
0.09528105044475833,1.1055893898010254,0.08618122724740168
0.09867804205003797,1.1416406631469727,0.08643529022348281
0.10207488460182035,1.1747024059295654,0.08689425005565257
0.10547160152070877,1.208909511566162,0.08724524086510708
0.10886877095887267,1.2426953315734863,0.08760696865339013
0.11226634406228242,1.2772321701049805,0.08789814936547898
0.11566430249101707,1.3115415573120117,0.08818958259170197
0.11906264260561643,1.346003770828247,0.08845639602655249
0.12246136152954126,1.3818798065185547,0.08861940159474858
0.12586045670009466,1.4150497913360596,0.08894418943467701
0.12925992507545306,1.448580265045166,0.08923214556662679
0.1326597627691606,1.483874797821045,0.08940091371857059
0.13605996153093222,1.518439531326294,0.08960512336773101
0.13946052008806,1.5516443252563477,0.0898791803108742
0.14286142987588785,1.5861072540283203,0.09007047254405724
0.14626267644856203,1.620870590209961,0.09023710920044256
0.1496642275328002,1.6542561054229736,0.09047222315950458
0.1530662481070325,1.688124656677246,0.0906723608956192
0.15646878366396205,1.723501443862915,0.09078540909908711
0.1598717449048363,1.757228136062622,0.0909795043818596
0.1632748059840917,1.7923240661621094,0.09109669901030279
0.1666774120166075,1.8258068561553955,0.09128972840401114
0.1700795446199655,1.8618953227996826,0.09134753309558853
0.1734806910728928,1.8945605754852295,0.09156777213547865
0.17688102296661232,1.928459644317627,0.0917214023574761
0.1802803521316364,1.9621598720550537,0.09187852361021995
0.18367875981851436,1.9967238903045654,0.09199006468064914
0.1870768007809597,2.0306661128997803,0.0921258298410343
0.1904745207664685,2.0650441646575928,0.09223750466278831
0.1938722392880053,2.10187029838562,0.0922379651289199
0.19727034187459716,2.1349029541015625,0.0924024867245617
0.20066896220298835,2.1682798862457275,0.09254753663302989
0.20406808376531965,2.202467918395996,0.09265428207187576
0.20746770081317203,2.236283779144287,0.09277342292066325
0.21086780992195042,2.2704520225524902,0.09287481427812264
0.21426841127241558,2.3048436641693115,0.09296440127519019
0.21766950607995517,2.3383870124816895,0.09308532117142847
0.2210710926075771,2.3738114833831787,0.0931291697571976
0.22447299569853185,2.4073309898376465,0.09324558884761858
0.2278749509016746,2.4402976036071777,0.09337998388591473
0.23127667119479275,2.4746313095092773,0.09345904188072979
0.23467798130011344,2.50931715965271,0.0935226463491737
0.23807870232892525,2.5439538955688477,0.09358609161259544
0.24147875856143014,2.5780997276306152,0.09366540633529313
0.24487822943480544,2.6136162281036377,0.09369326177335599
0.24827716371313538,2.647446393966675,0.093779864354927
0.25167578794402146,2.6811909675598145,0.09386716238756941
0.2550742405333214,2.715641975402832,0.09392778681566971
0.2584727879187252,2.749354124069214,0.09401218477311664
0.26187158159684765,2.78326416015625,0.09408793651197894
0.2652708251399684,2.817876100540161,0.09413856950244137
0.26867057018521523,2.853224992752075,0.09416382194453908
0.27207082090422546,2.8874669075012207,0.09422474079180783
0.2754715270742047,2.92108154296875,0.09430463443832444
0.27887255696041274,2.9546058177948,0.09438570630330381
0.2822737331331591,2.9881513118743896,0.09446433720121628
0.2856749115019548,3.0226759910583496,0.09451059668553147
0.28907592356493117,3.056837320327759,0.09456699630124119
0.2924766384223188,3.093552827835083,0.09454392884151862
0.2958769955356985,3.12754225730896,0.09460367636735971
0.29927694782385045,3.1611123085021973,0.09467456977688157
0.30267655607612587,3.196031332015991,0.09470387634942355
0.3060758611046835,3.2293994426727295,0.09477795068031834
0.3094749963220323,3.263315439224243,0.09483453318738957
0.31287405564597764,3.297682285308838,0.09487695556355759
0.31627317394135435,3.332423686981201,0.09490785195680267
0.3196724772818893,3.3675694465637207,0.09492676613041616
0.3230720506466846,3.4015767574310303,0.09497714550786089
0.3264719448852381,3.435849905014038,0.0950192685683993
0.32987214349727384,3.470292091369629,0.09505601684585645
0.3332725982405045,3.5042762756347656,0.09510454428429316
0.3366732240459336,3.5388622283935547,0.0951360076537267
0.34007394288910203,3.573873519897461,0.09515556188425471
0.34347465875195304,3.6073596477508545,0.09521497502088692
0.3468752716217944,3.6404836177825928,0.09528274483297222
0.35027569952664056,3.6746065616607666,0.09532332064642338
0.3536759108267523,3.7086148262023926,0.09536604026062073
0.35707586402458275,3.743556499481201,0.09538412578361458
0.36047561901858777,3.7774534225463867,0.09542821014470396
0.36387519164937143,3.8120579719543457,0.09545374029630033
0.36727465827188277,3.8463282585144043,0.095487081077614
0.370674104295691,3.8787076473236084,0.09556639427348027
0.3740735903885999,3.9130990505218506,0.09559522658612832
0.377473191102256,3.9475841522216797,0.09562131585967992
0.3808729608108285,3.9821109771728516,0.09564599354316185
0.38427291512144185,4.0163414478302,0.0956773521656239
0.3876730572969542,4.050183296203613,0.09571741053308243
0.3910733452452491,4.087159156799316,0.09568341487134586
0.39447371991014896,4.119283437728882,0.09576270384725878
0.3978741536469958,4.1541526317596436,0.0957774518454469
0.40127456298710446,4.188503742218018,0.09580379717521989
0.4046749178770728,4.222058296203613,0.09584778074735445
0.40807514930398986,4.257421016693115,0.09585031588465165
0.41147525816416614,4.293441534042358,0.0958380951275594
0.4148752050166589,4.326773643493652,0.09588558108199717
0.4182750329454706,4.359495162963867,0.09594574998016517
0.421674775695604,4.39373517036438,0.0959718233679145
0.4250744542353421,4.426457405090332,0.0960303952651878
0.428474124240553,4.461169958114624,0.09604523662255503
0.4318738330406695,4.495828151702881,0.09606101889750591
0.4352736163028169,4.529422283172607,0.09609914666599204
0.43867349936921607,4.564067363739014,0.09611459788136043
0.44207348368914,4.598463773727417,0.09613503670831458
0.44547357948213484,4.632404804229736,0.09616464845114221
0.4488737631809706,4.66647481918335,0.09619118940398036
0.4522739999020024,4.701084136962891,0.09620631895224736
0.4556742605417183,4.734701156616211,0.09624139844707302
0.4590744923044562,4.768076658248901,0.09628085393934364
0.4624746950031122,4.802504777908325,0.09629864339344554
0.46587480775391227,4.836688995361328,0.09632101799406864
0.4692748552339381,4.870321273803711,0.09635398341338484
0.47267482682088774,4.903911590576172,0.09638730594760826
0.4760747170645705,4.938237190246582,0.09640580205520638
0.47947456610671274,4.972495079040527,0.09642534753382405
0.48287436486975605,5.006494998931885,0.09644958498366128
0.48627416406575774,5.040835380554199,0.096466979648182
0.489673990406387,5.07500958442688,0.0964873035725874
0.4930738550552683,5.1101744174957275,0.09648865474476352
0.49647379792441637,5.143572807312012,0.0965231399502381
0.49987380172850365,5.177022695541382,0.09655623147238876
0.5032738841052179,5.2112531661987305,0.09657444535021956
0.506673993492918,5.2454211711883545,0.09659357694210292
0.5100741394740564,5.2799460887908936,0.09660593704866091
0.51347429231183,5.313311338424683,0.09663922544845027
0.5168744291566506,5.350121259689331,0.0966098531356772
0.5202745387545268,5.383142709732056,0.096648847487163
0.5236746061386697,5.4163947105407715,0.09668324302871681
0.5270746329882485,5.450746536254883,0.09669769626646274
0.5304746046174851,5.485013961791992,0.09671344654958278
0.5338745483264997,5.519337892532349,0.09672800591694716
0.5372744655529234,5.552911281585693,0.09675545642780356
0.5406743515452944,5.586802959442139,0.09677705755337443
0.5440742429928517,5.622653245925903,0.09676468016004372
0.5474741479223337,5.655460834503174,0.09680451583755487
0.5508740728186617,5.689828634262085,0.09681733989341926
0.5542740509028931,5.7233240604400635,0.09684477849752844
0.5576740799296797,5.757550239562988,0.09685961159272637
0.5610741256046279,5.792297840118408,0.09686555165007851
0.564474204764465,5.825540065765381,0.09689645910800242
0.5678742885009205,5.86088752746582,0.09689220034332628
0.5712743643615106,5.894348621368408,0.09691899835895451
0.5746744382996439,5.928926944732666,0.0969272253911295
0.5780744657669317,5.962526082992554,0.09695126825789914
0.5814744777820862,5.997524261474609,0.09695241776964804
0.584874444649794,6.032154321670532,0.09695946314712653
0.5882744090034405,6.065382957458496,0.09698883205388535
0.5916743552465187,6.101508378982544,0.09697181721238302
0.5950743081755026,6.134694576263428,0.09700145635252726
0.5984742634298975,6.168590784072876,0.09701960859117788
0.6018742358037332,6.204567909240723,0.09700502027020072
0.6052742143800451,6.237645387649536,0.09703568843116361
0.6086741882445014,6.271528720855713,0.09705355987932897
0.612074185278702,6.3054540157318115,0.09707059693903178
0.6154742000661363,6.3414952754974365,0.09705505930820986
0.618874237926552,6.374330520629883,0.09708850771443801
0.6222742827866425,6.408617258071899,0.09709961723847124
0.6256743225104767,6.441699981689453,0.09712875860238096
0.629074380653789,6.477017641067505,0.09712408017312556
0.6324744235731015,6.509981632232666,0.09715456345399669
0.6358744635605204,6.544411897659302,0.0971629649087261
0.6392744787855958,6.5803210735321045,0.0971494356646117
0.6426744730034479,6.614221572875977,0.09716554940326895
0.6460744574727882,6.647907257080078,0.0971846375842132
0.6494744240131559,6.6818459033966064,0.09719985067045714
0.6528743852313399,6.715644121170044,0.09721694203140589
0.6562743574054709,6.750405550003052,0.09721998960568735
0.6596743399769545,6.784424304962158,0.09723365024420211
0.6630743333857834,6.817994594573975,0.09725357276074753
0.6664743354315664,6.853759765625,0.09724215003482692
0.6698743420182713,6.887955665588379,0.0972529985006879
0.6732743550198151,6.921318292617798,0.09727545050744484
0.6766743782230332,6.956560134887695,0.0972714049907307
0.6800744116248225,6.991169452667236,0.0972762019615136
0.6834744508565597,7.024402856826782,0.09730000752908323
0.6868744650484342,7.058385848999023,0.0973132497631654
0.6902744755623407,7.0938756465911865,0.0973056915501525
0.6936744680246221,7.127195596694946,0.09732782812166622
0.6970744464257442,7.1609108448028564,0.09734438279337844
0.7004744334713231,7.194643974304199,0.09736054153243442
0.703874398461633,7.228926420211792,0.09736914688931238
0.7072743813343436,7.263161897659302,0.09737830318256803
0.7106743750289845,7.297055721282959,0.09739193479860594
0.7140743773841418,7.3309807777404785,0.09740502656238455
0.7174743842953971,7.368272542953491,0.09737348613435048
0.7208743976268964,7.400396347045898,0.09741024180612383
0.7242744211576619,7.434565544128418,0.0974198716601094
0.7276744548754689,7.468386173248291,0.09743396203613491
0.731074482644075,7.503264665603638,0.09743418568126173
0.734474496999163,7.537644147872925,0.09744085586826583
0.7378744906072192,7.573941946029663,0.09742278140830225
0.7412744869105075,7.60662579536438,0.0974511573005542
0.7446744568982371,7.6413893699646,0.0974527564090988
0.7480744429689383,7.675001621246338,0.09746896220817464
0.7514744348729777,7.708554983139038,0.09748577217347242
0.7548744317058287,7.743459701538086,0.09748542134930821
0.7582744375422171,7.777528524398804,0.09749555211060201
0.7616744536399731,7.8131263256073,0.09748651460345735
0.7650744802030929,7.846925258636475,0.09749990664955517
0.768474497689554,7.88160252571106,0.09750231570073042
0.7718745075094573,7.91485071182251,0.0975223078252757
0.7752744920435359,7.9493019580841064,0.0975273673250158
0.7786744876949545,7.983352422714233,0.09753728088960095
0.7820744616632272,8.017271518707275,0.09754870592050634
0.785474455011175,8.051300764083862,0.0975587023795095
0.7888744570090552,8.086331367492676,0.09755653350793378
0.7922744635747112,8.12104606628418,0.09755817872576357
0.7956744765741413,8.154183626174927,0.09757868022741437
0.7990744997935728,8.188519477844238,0.09758473457328115
0.802474521133472,8.222683191299438,0.09759278114747069
0.8058745176634912,8.25623106956482,0.09760803820452767
0.8092745061664669,8.292168855667114,0.09759503457450516
0.8126744990033704,8.325696229934692,0.09761039516208066
0.8160744738181804,8.359741687774658,0.09761958016138383
0.8194744637645741,8.392706871032715,0.09764125881638691
0.822874464270253,8.42649221420288,0.09765326346392338
0.8262744752646356,8.460335731506348,0.0976645019165828
0.82967449192201,8.495108366012573,0.09766496861198275
0.8330745134166658,8.52939486503601,0.09767099854077967
0.8364745334949354,8.56410264968872,0.09767217509067791
0.8398745396558535,8.597802639007568,0.09768478934901428
0.8432745424652712,8.63141393661499,0.09769830860365167
0.8466745231208609,8.665463209152222,0.09770678181711356
0.8500745093196226,8.699644804000854,0.09771370308459999
0.8534744959925953,8.734566926956177,0.09771228535196698
0.8568744929979797,8.768523454666138,0.09772164007179533
0.8602745003017772,8.80271601676941,0.09772830324901216
0.863674518359359,8.838446378707886,0.09771791119760369
0.8670745449122469,8.871243238449097,0.09773991329132263
0.8704745569339084,8.905215501785278,0.09774884804970745
0.8738745680651993,8.939487218856812,0.09775444012290349
0.877274559156041,8.973359107971191,0.09776434316294583
0.8806745447965308,9.007057428359985,0.0977760552545833
0.884074527827944,9.04160761833191,0.09777846652352819
0.8874745179883377,9.076555728912354,0.09777657345962046
0.8908745131062221,9.110903263092041,0.0977811406158953
0.8942745172604629,9.145087003707886,0.09778742584929792
0.8976745317123186,9.178064823150635,0.0978065146639666
0.9010745566567584,9.21214509010315,0.09781376083891759
0.9044745725498522,9.246721029281616,0.09781570890758466
0.9078745808128159,9.280404090881348,0.09782705277940072
0.9112745638191041,9.314404010772705,0.0978349836194733
0.914674557958602,9.350193738937378,0.09782412894286745
0.9180745304298179,9.383917808532715,0.09783488614904755
0.9214745222940435,9.417166948318481,0.09785050295392511
0.9248745228153455,9.451083660125732,0.0978590980754308
0.9282745279013127,9.484839916229248,0.09786928784248301
0.9316745394135938,9.518215894699097,0.09788331655015976
0.9350745611317935,9.552108526229858,0.09789195323358203
0.9384745904035792,9.586560010910034,0.09789482247391591
0.941874602888619,9.623239994049072,0.0978749988019696
0.9452746146692479,9.655993461608887,0.09789511751717216
0.9486746018571297,9.690384864807129,0.09789854738406321
0.9520745810546304,9.724325895309448,0.09790648640373785
0.955474569070203,9.758591413497925,0.09791111530180535
0.958874567738215,9.793334007263184,0.09791094299725403
0.9622745768817451,9.827189445495605,0.09791961193165089
0.9656745916861076,9.863274574279785,0.09790608427390565
0.9690746012675098,9.895334959030151,0.09793247073290477
0.9724746126840134,9.929315567016602,0.09793974278694484
0.9758745995346719,9.963718891143799,0.09794280731886898
0.9792745886515165,9.997386455535889,0.09795305933274784
0.9826745720382671,10.032217502593994,0.09795188070675108
0.986074570366549,10.066512107849121,0.09795593148869121
0.9894745791686624,10.103468656539917,0.0979341464605011
0.9928745936606261,10.136205434799194,0.09795328242380831
0.9962746130116779,10.170483112335205,0.09795745216894884
0.9996746309839734,10.204320907592773,0.09796581664147205
1.00307463505033,10.238358736038208,0.09797221028401623
1.0064746358120389,10.272083044052124,0.09798155169654912
1.0098746144735444,10.306179285049438,0.0979872935005613
1.0132745986925322,10.342812776565552,0.0979689587912082
1.0166745834429838,10.374879360198975,0.09799387040038657
1.0200745785631775,10.40878438949585,0.09800131700226186
1.023474584016765,10.442598819732666,0.09800956655375623
1.026874600245171,10.476839542388916,0.09801377563247707
1.0302746250005395,10.511476278305054,0.0980142653346375
1.0336746427419756,10.545068979263306,0.09802445529514114
1.0370746611782222,10.579548597335815,0.09802636205474613
1.0404746531589943,10.61500597000122,0.09801922449214362
1.04387464179339,10.648688077926636,0.0980284739448053
1.0472746290580308,10.682954549789429,0.09803230222285965
1.0506746171535966,10.717163324356079,0.09803663388854106
1.0540746103696796,10.751541376113892,0.09803939486402008
1.0574746125934378,10.785442590713501,0.09804647363326066
1.0608746250906098,10.819510221481323,0.09805200081832938
1.0642746480640533,10.854337930679321,0.0980506277638479
1.0676746736215073,10.887569189071655,0.09806364075216904
1.071074680365684,10.92118501663208,0.09807311923884854
1.0744746730029755,10.955342531204224,0.09807768857455049
1.0778746651684825,10.989855527877808,0.09807905685695807
1.0812746416606644,11.023993253707886,0.09808375393344704
1.0846746311203532,11.0584716796875,0.09808540117823993
1.0880746294471038,11.093881130218506,0.09807880728803815
1.091474632342873,11.127116918563843,0.0980914140051786
1.0948746416789445,11.160700798034668,0.0981008864489715
1.0982746612443401,11.195307731628418,0.09810133741491983
1.1016746883875834,11.229374647140503,0.09810650396886693
1.1050746987590452,11.263508796691895,0.09811105213355956
1.1084747084723372,11.297478199005127,0.09811700354243226
1.1118746936439954,11.33316421508789,0.09810805460347533
1.1152746708418453,11.3667733669281,0.09811708519558977
1.118674656919577,11.399786233901978,0.09813119596863451
1.1220746536771848,11.434207439422607,0.09813313774669861
1.125474660939553,11.467910051345825,0.09814121805110182
1.1288746739053197,11.502284526824951,0.09814351846997217
1.1322746917359816,11.537642240524292,0.09813744161342006
1.135674708180505,11.573772192001343,0.09812485413920381
1.1390747107291963,11.606817483901978,0.09813841841736813
1.142474709955482,11.640151500701904,0.09814947081114798
1.145874693215909,11.67464566230774,0.09815070421498366
1.1492746894013524,11.708819389343262,0.09815461757377182
1.152674696241525,11.743554592132568,0.09815381596758987
1.156074708754964,11.77736759185791,0.09816070524572888
1.1594747160554668,11.813257217407227,0.0981502979844494
1.162874730121908,11.846394300460815,0.09816275742878769
1.166274718841636,11.880213022232056,0.09816951233611097
1.1696747188824541,11.914448261260986,0.09817279770189372
1.1730746955348277,11.94916844367981,0.09817207792022498
