Distance,Time,Velocity
0.0,0.029094457626342773,0.0
2.0649190922302436e-06,0.06373357772827148,3.239923390201064e-05
0.0011515677007995584,0.09805846214294434,0.011743685100025995
0.00346140973779601,0.13466763496398926,0.02570335284139806
0.006859590070681245,0.16855263710021973,0.04069702016351486
0.010259069270849705,0.20128345489501953,0.05096826898266615
0.013659747161752885,0.2351670265197754,0.0580852994737518
0.017061626458533746,0.269484281539917,0.06331213962105064
0.020464505804946725,0.3043060302734375,0.06724975442175142
0.023867918585848066,0.33893775939941406,0.07041976859745928
0.027271367164602198,0.3757143020629883,0.07258538473212066
0.030674432700451577,0.40831851959228516,0.07512378505653051
0.03407684477655638,0.4430217742919922,0.07691911945189538
0.03747860948884149,0.47699403762817383,0.07857249049736928
0.040879722233288465,0.5107355117797852,0.08004088474449894
0.044280189067856426,0.5450954437255859,0.08123382717201381
0.04768001024732123,0.57936692237854,0.08229674219504132
0.05107919119477046,0.616330623626709,0.08287628301544113
0.05447773915736999,0.6482541561126709,0.08403762419982294
0.057875658593653026,0.6810858249664307,0.08497557352115734
0.06127295322081866,0.7150998115539551,0.08568447681124237
0.06467000612097339,0.7493903636932373,0.08629682106166771
0.06806702156688547,0.7836666107177734,0.08685711581426411
0.07146463511646696,0.817838191986084,0.08738236464956257
0.0748629347819545,0.8527424335479736,0.08779079337060204
0.07826237106040855,0.8876323699951172,0.08816980284398492
0.08166283012072675,0.922105073928833,0.08856130654696885
0.08506414935647365,0.9555928707122803,0.08901714523368984
0.088465983449359,0.9902751445770264,0.0893347509869545
0.09186845783411315,1.0237464904785156,0.08973750697906896
0.09527064682401404,1.0574932098388672,0.0900910246397995
0.09867259544160799,1.0907292366027832,0.09046479376397437
0.1020739451097953,1.125098705291748,0.0907244356692479
0.10547465040184177,1.1603736877441406,0.09089714073652681
0.10887471076047577,1.1942698955535889,0.09116424282804872
0.11227412510297244,1.2278282642364502,0.09144122869071789
0.11567290276602324,1.2620964050292969,0.09165140024571906
0.11907117415032219,1.2958638668060303,0.09188555773516695
0.12246936704240718,1.3300085067749023,0.09208164189820069
0.12586749933120192,1.363581895828247,0.09230651984767613
0.12926596998071566,1.3995299339294434,0.09236384792269298
0.1326650357170381,1.4327161312103271,0.09259687444502045
0.13606468978548944,1.4671802520751953,0.09273890484351742
0.13946483595591092,1.501115322113037,0.0929074761288786
0.14286562721712945,1.535451889038086,0.09304467840189408
0.1462668748919364,1.5706064701080322,0.09312764061253079
0.14966838182300538,1.604891300201416,0.09325764418077523
0.15306975151366067,1.640000581741333,0.09333518122971216
0.15647093511939497,1.673647165298462,0.0934909928231447
0.15987180546664595,1.706763744354248,0.09366955795462673
0.16327215235877032,1.7405540943145752,0.09380469868307448
0.16667202236931822,1.7756013870239258,0.09386792755815321
0.17007141374768164,1.8099579811096191,0.09396428841039563
0.1734703662942255,1.8430676460266113,0.09412045546358683
0.1768691550235861,1.8800301551818848,0.09407782877103628
0.18026812629803585,1.912886381149292,0.09423880481062756
0.18366699791368332,1.9459800720214844,0.0943827742916658
0.18706644311712028,1.9806854724884033,0.09444530477729121
0.19046598310856663,2.014925479888916,0.09452755697896437
0.19386598250528167,2.0484578609466553,0.09463996609414764
0.19726638890505405,2.0825676918029785,0.09472267801017843
0.2006670288371723,2.1172127723693848,0.09477886750730523
0.20406802800841642,2.152181625366211,0.09481914797673854
0.20746867992110946,2.1859350204467773,0.09491072606481482
0.21086953727015945,2.219808578491211,0.0949944690336705
0.2142699883657603,2.2530975341796875,0.09510018324340858
0.21767025640147722,2.287034034729004,0.09517578361148853
0.22107011073097718,2.3213706016540527,0.09523257965507854
0.22446982159212134,2.3555777072906494,0.09529289604727292
0.2278693092153539,2.3929340839385986,0.095225903105654
0.23126849556948578,2.426130533218384,0.09532401179696483
0.23466804769201022,2.4596023559570312,0.09540893759662256
0.2380673792699866,2.4943270683288574,0.09544352955664566
0.2414669922812989,2.5282044410705566,0.0955092825400824
0.24486685583554466,2.561948776245117,0.0955783574230669
0.24826689235952362,2.595644950866699,0.09564747762463661
0.25166716942952894,2.632007122039795,0.09561796673045773
0.25506749464095757,2.664647102355957,0.09572280487552695
0.2584681013302151,2.6988914012908936,0.09576824810608847
0.26186863404362487,2.733063220977783,0.09581506641838256
0.26526923667144736,2.7670938968658447,0.09586564336392964
0.26866963214923234,2.8019258975982666,0.09588748666748415
0.2720699058109939,2.8358633518218994,0.0959390041259226
0.27547000896018253,2.8709335327148438,0.0959513711554616
0.2788699156744251,2.905056953430176,0.09599464662651332
0.28226965473443155,2.93873929977417,0.09605127435295904
0.2856693016871011,2.9721710681915283,0.09611469028292567
0.2890688599182324,3.0067665576934814,0.09613944227847865
0.2924684368437938,3.0414834022521973,0.09615980038793669
0.29586804316345916,3.075793981552124,0.09619241241058564
0.29926778888616795,3.112705707550049,0.0961439393901828
0.3026676402315237,3.145416259765625,0.09622498748514655
0.30606766138698005,3.1787731647491455,0.09628483868591282
0.3094678057602497,3.2130796909332275,0.0963150109950637
0.31286807963711816,3.2475781440734863,0.09633889186256285
0.3162684024166455,3.2817702293395996,0.09637128144717466
0.31966875025823027,3.3162975311279297,0.09639326606183778
0.32306908560436065,3.3519785404205322,0.09638160916263774
0.32646933426906866,3.3854353427886963,0.09643348674919455
0.329869496655388,3.419440269470215,0.09646885766672443
0.3332695346298658,3.4533300399780273,0.09650671403303993
0.3366694607517147,3.4871933460235596,0.0965445352021041
0.34006929326873364,3.5213284492492676,0.09657414756105327
0.34346905047722187,3.55587100982666,0.09659210064933292
0.34686877079505324,3.592180013656616,0.09656219050168434
0.3502685058401265,3.625466823577881,0.09661335295145672
0.35366827530396755,3.659630060195923,0.09664044438552717
0.35706813010098515,3.693061351776123,0.09668621668829264
0.36046804710970987,3.7278647422790527,0.09669558099077799
0.363868064232706,3.761641025543213,0.09673120368527467
0.36726815329450035,3.795771598815918,0.09675717933320034
0.37066831083423357,3.8329739570617676,0.09670514722682222
0.3740685131315668,3.8645687103271484,0.09679437504422082
0.3774687349162974,3.898709535598755,0.09681889134588392
0.3808689291250033,3.932007312774658,0.09686373875440214
0.3842690844092291,3.966395854949951,0.09688117335279886
0.38766916174734595,4.000282287597656,0.09691045128221643
0.39106917765362204,4.034674406051636,0.09692707224827231
0.3944691151783342,4.068665981292725,0.0969529366608268
0.3978690033955339,4.104665994644165,0.09693090836493878
0.4012688470105688,4.138632297515869,0.09695687322872881
0.40466867574966797,4.172930955886841,0.09697468758230793
0.4080685203865986,4.207299709320068,0.09699059933444712
0.41146839292421716,4.242100477218628,0.09699638071609284
0.41486831393521256,4.2758870124816895,0.09702508806340662
0.41826828326490695,4.312017440795898,0.09700060099657304
0.4216683138374988,4.345003128051758,0.09704672273195102
0.42506837793414753,4.379156112670898,0.09706627646916505
0.42846847488434653,4.413010358810425,0.09709210721178659
0.4318685957277044,4.448098421096802,0.097090611502525
0.435268719768698,4.481991529464722,0.09711502507473092
0.4386688431445961,4.515403985977173,0.09714941221359273
0.4420689304054602,4.551900148391724,0.09711744897603958
0.44546897200322366,4.585134506225586,0.09715504995510525
0.4488689625562608,4.618778944015503,0.09718346948339127
0.45226891343565173,4.653099060058594,0.09719735333336242
0.455668815290041,4.687194347381592,0.09721568629740975
0.4590687091087336,4.72097635269165,0.09724020516370453
0.46246858600259577,4.755281448364258,0.09725367278979412
0.46586849181122647,4.789473533630371,0.09726924860113027
0.4692684124390582,4.823884725570679,0.0972801878849919
0.4726683741571952,4.858314037322998,0.09729061779992353
0.47606836329237995,4.891226768493652,0.09733107578632966
0.4794683788670266,4.92469048500061,0.09736010421921311
0.48286843583416117,4.958961248397827,0.09737289961484764
0.4862685092082304,4.993896245956421,0.09737256948459114
0.4896686105700455,5.027565240859985,0.09739676903452489
0.49306869225666716,5.063817024230957,0.09737095355090356
0.49646876850620825,5.0988922119140625,0.09736796697646602
0.49986881386411813,5.131254196166992,0.09741649794654811
0.5032688332347915,5.165307283401489,0.09743250606832744
0.5066688237977321,5.199010610580444,0.09745485473074751
0.5100688010749137,5.233252763748169,0.09746687654918303
0.5134687378378031,5.266883850097656,0.09749004391435034
0.5168686828688458,5.3013482093811035,0.09749759164172819
0.520268613576967,5.33893346786499,0.09744804214333458
0.5236685464547366,5.370886325836182,0.09750132746911336
0.5270684964140508,5.404987096786499,0.09751521825600955
0.5304684701232094,5.438914060592651,0.09753205588716489
0.5338684786281293,5.472961187362671,0.0975465493635981
0.5372685017837839,5.508928060531616,0.09752686836355912
0.5406685439541894,5.544494152069092,0.09751449440205884
0.5440685774277931,5.578947067260742,0.09752173140709333
0.5474686062280687,5.612767457962036,0.09753986965047924
0.5508686300197825,5.646321773529053,0.09756238700428857
0.5542686447159059,5.681037187576294,0.09756469222345894
0.557668643246035,5.715803623199463,0.09756609568994884
0.5610686412436003,5.752182960510254,0.09754012434851865
0.5644686400964144,5.7845540046691895,0.09758205034316998
0.5678686245111086,5.818758726119995,0.0975927429267666
0.5712685963458715,5.8520262241363525,0.09761893991344507
0.5746685761532394,5.885829925537109,0.09763594657397415
0.5780685400737172,5.920299291610718,0.09764177647114254
0.581468507361772,5.953963041305542,0.09766075189379607
0.5848684949739873,5.9886157512664795,0.09766338654309197
0.5882684967472191,6.023863077163696,0.09765635261155409
0.591668497721863,6.059001445770264,0.09765115638566181
0.5950685185851753,6.09148907661438,0.09768851443396358
0.5984685445631484,6.126119136810303,0.09769130034822568
0.6018685705085928,6.160791873931885,0.09769337819303311
0.6052685826205919,6.19496488571167,0.09770331128375062
0.6086685860454248,6.22893762588501,0.09771627564803957
0.6120685848730137,6.263425350189209,0.09772106326046083
0.6154685772455186,6.2969818115234375,0.0977402501177969
0.6188685593802227,6.330928325653076,0.09775320893660289
0.6222685312889487,6.365270376205444,0.09775995276101755
0.6256684923859727,6.39948844909668,0.09776851655608332
0.629068479305438,6.433572292327881,0.09777903328382746
0.6324684653179845,6.467387676239014,0.0977934982375735
0.635868464381516,6.503821849822998,0.09776843201798666
0.6392684845830104,6.539065837860107,0.09776143877948924
0.6426685038626616,6.570894956588745,0.09780532303567678
0.6460685224467575,6.60502028465271,0.09781476734415928
0.6494685306770537,6.638888359069824,0.09782790364139379
0.6528685285841609,6.672696590423584,0.09784178251430381
0.656268515717633,6.708713054656982,0.09782330983169292
0.6596684943304121,6.744268178939819,0.09781172350031167
0.6630684685113784,6.7774317264556885,0.09783476916825178
0.6664684569704242,6.810632705688477,0.09785705466303692
0.6698684596328205,6.84505033493042,0.09786172881950468
0.6732684615027172,6.8789308071136475,0.09787399821008173
0.6766684832865593,6.913451910018921,0.09787707965480118
0.6800684985873547,6.947869300842285,0.09788159062015034
0.6834685087490115,6.983487844467163,0.09786922007611225
0.6868685098688195,7.018906354904175,0.09785976263793549
0.6902685006756974,7.050435781478882,0.097904373867073
0.6936684809748713,7.084496259689331,0.09791359266033264
0.6970684508729054,7.118468999862671,0.09792392871084403
0.7004684475926266,7.152552366256714,0.09793265560657706
0.7038684448107253,7.187219858169556,0.09793333983106882
0.7072684495166046,7.221675395965576,0.0979368928589235
0.7106684732936274,7.25493311882019,0.09795658507865025
0.7140684870810949,7.28948712348938,0.09795867322134454
0.7174684918895652,7.322902202606201,0.097975976196189
0.720868492111795,7.357372283935547,0.09797906974012655
0.7242684858740541,7.391506195068359,0.09798658984515074
0.727668469393566,7.42514705657959,0.09800054650079457
0.7310684426825975,7.459484815597534,0.0980052189601563
0.7344684218931694,7.4954259395599365,0.09798888386272159
0.7378684144690391,7.5292181968688965,0.09800066822022628
0.7412684282586044,7.563113451004028,0.0980110153127742
0.7446684307199297,7.59730339050293,0.09801746651987184
0.7480684565438245,7.631594181060791,0.09802256760458966
0.7514684630628226,7.665638208389282,0.09803077612512612
0.7548684590974152,7.699500799179077,0.0980412209552468
0.7582684494440283,7.735363245010376,0.09802622390527585
0.7616684349340074,7.768759489059448,0.09804247846862117
0.7650684186904394,7.803481340408325,0.09804193606880675
0.768468406343106,7.836815595626831,0.09805875830125868
0.7718684070322076,7.870499849319458,0.09807107830628434
0.775268421408725,7.905120134353638,0.09807168116770369
0.7786684300993969,7.939183473587036,0.098079157975119
0.7820684266547162,7.972966432571411,0.09809001872374451
0.7854684175141536,8.00911545753479,0.0980718060163814
0.788868403500311,8.041960716247559,0.09809403842355538
0.7922683968970009,8.0757155418396,0.09810504007878006
0.795668398090844,8.109838962554932,0.09811149170342784
0.7990684026228366,8.144811630249023,0.09810765907159544
0.8024684230745138,8.178508758544922,0.098119161666984
0.805868430560772,8.212657928466797,0.09812516697760694
0.8092684273721339,8.248717546463013,0.09810839355496444
0.8126684184513707,8.281416177749634,0.09813157568808512
0.8160684046396609,8.315618515014648,0.09813682568123717
0.8194683818712485,8.349010467529297,0.09815155760773071
0.8228683609420865,8.38299012184143,0.09815929029883348
0.8262683666371778,8.416889905929565,0.09816789525250709
0.8296683756973715,8.451585054397583,0.09816719234999276
0.8330683862270564,8.48562240600586,0.0981741051354626
0.836468407647252,8.520666360855103,0.09816936519074163
0.8398684181762273,8.554129362106323,0.09818280535909765
0.8432684183796508,8.589695453643799,0.0981720973613717
0.8466684077956419,8.624300956726074,0.09817240980387251
0.8500683886672251,8.657946586608887,0.09818360279353223
0.8534683650903322,8.693359851837158,0.09817474252028917
0.8568683485357871,8.72756576538086,0.09817953500100546
0.8602683399880967,8.764525175094604,0.09815344503004533
0.8636683390622953,8.798583507537842,0.09815992975714571
0.8670683633884346,8.83202314376831,0.09817324403188638
0.8704683765792286,8.866882085800171,0.09817074008159377
0.8738683890753854,8.901085376739502,0.09817548670626125
0.8772683925495612,8.935344934463501,0.09817957773134747
0.8806683857161801,8.972239971160889,0.09815479618767188
0.8840683683774285,9.005739688873291,0.09816721323510011
0.8874683406378489,9.040634393692017,0.0981643878063544
0.890868327838969,9.074032068252563,0.09817778041096657
0.8942683157145385,9.108986616134644,0.09817429242134698
0.8976683282198612,9.145737409591675,0.09815155279643427
0.9010683386872216,9.17810869216919,0.09817581910486829
0.9044683589861562,9.212953805923462,0.0981735475982338
0.9078683662965685,9.249081373214722,0.09815767962921694
0.9112683689973411,9.282066583633423,0.09817515967878666
0.914668365224405,9.315778017044067,0.09818486051845972
0.9180683511879748,9.350397825241089,0.09818495088087907
0.9214683268977362,9.385664939880371,0.09817826790112125
0.9248683085236483,9.418663263320923,0.09819528341408708
0.92826830348115,9.454060316085815,0.09818726266234284
0.9316683196217782,9.487897634506226,0.09819544387087652
0.9350683244147238,9.522953987121582,0.09819099469337648
0.9384683525364527,9.55752158164978,0.09819160171589779
0.9418683613330364,9.592024087905884,0.09819286864808778
0.9452683596233782,9.628396272659302,0.09817505769964545
0.9486683521987685,9.663424015045166,0.09817103655203052
0.9520683398986185,9.70240306854248,0.09812706534378607
0.9554683186629997,9.738828420639038,0.09810916440812541
0.9588682915423052,9.774440288543701,0.09809955999896619
0.9622682766376419,9.807891845703125,0.09811163211992548
0.9656682652742996,9.842028856277466,0.09811678865972587
0.9690682803507109,9.877172231674194,0.09811191478904205
0.9724682987690346,9.91232943534851,0.09810693895030369
0.9758683185219377,9.948156595230103,0.0980953917623133
0.9792683374135271,9.982293128967285,0.09810053910076241
0.9826683511484006,10.017043828964233,0.09809963577348238
0.9860683558368237,10.053304433822632,0.09808400435177955
0.9894683502092623,10.086541891098022,0.09809787743830493
0.9928683340683445,10.121045112609863,0.09809938825698195
0.9962683075201758,10.156911611557007,0.09808772052191292
0.9996682754002195,10.191274166107178,0.0980906076224293
1.00306825466751,10.226999282836914,0.09808040725600446
1.0064682377035912,10.261650562286377,0.09808054090270465
1.0098682408161224,10.296824932098389,0.09807569299037518
1.013268251488172,10.331189393997192,0.09807856703090921
1.0166682655115027,10.36553692817688,0.09808158251290097
1.0200682924796178,10.400200128555298,0.09808160226444763
1.0234683044822486,10.435045957565308,0.09807990387816586
1.026868306120312,10.46879768371582,0.09808846604396629
1.0302682969602768,10.507050514221191,0.09805494849061766
1.0336682792243386,10.54177713394165,0.09805446141487931
1.0370682570070955,10.57567834854126,0.09806162998046758
1.0404682417785651,10.609580993652344,0.09806874016995315
1.0438682345449815,10.64451265335083,0.09806632473835031
1.0472682349027087,10.68168592453003,0.09804334655615576
1.0506682547550064,10.715761661529541,0.09804886371511894
1.0540682689224787,10.74907922744751,0.0980612614921417
1.0574682827343191,10.784478425979614,0.09805465234061733
1.0608682874837088,10.818584442138672,0.09805980562037292
1.064268281927365,10.852830171585083,0.09806366312759927
1.0676682658644934,10.888781547546387,0.09805213385928156
1.071068239395956,10.921802282333374,0.09806698672145611
1.0744682189920256,10.956602573394775,0.09806582029370024
1.0778682018826402,10.991047859191895,0.09806782899059174
1.0812682100574094,11.024704694747925,0.09807684105793023
1.0846682187350956,11.059272289276123,0.09807772070020095
1.0880682405180393,11.096468210220337,0.0980553649958534
1.091468249258631,11.129515171051025,0.09806970317068692
1.094868253407936,11.164157152175903,0.09806994280750923
1.0982682510954573,11.198330640792847,0.09807428324135457
1.101668238527636,11.232501983642578,0.09807861508788952
1.1050682157089595,11.267088174819946,0.09807930838587044
1.1084681988121514,11.301241874694824,0.09808375142329959
1.1118681952404406,11.33627438545227,0.09808056486946806
1.1152682128426614,11.370572328567505,0.09808373585915757
1.1186682190891974,11.40460467338562,0.09808917109593285
1.122068223538585,11.438573598861694,0.09809511770333386
1.1254682215292804,11.472687005996704,0.09809979309476542
1.128868209247821,11.506985187530518,0.09810286455144768
1.1322681896038462,11.541033744812012,0.09810803907516773
1.1356681921848273,11.576672554016113,0.09809970757019017
1.1390681896629622,11.609842300415039,0.09811228784927094
1.1424682085291449,11.643956184387207,0.09811684194251974
1.1458682149911124,11.677393436431885,0.09812705388654276
1.1492682196591748,11.711613893508911,0.09813064451314857
1.1526682178826866,11.74631953239441,0.09813016023477124
1.156068205855267,11.779809713363647,0.09813980310257145
1.1594681835894385,11.81661343574524,0.09812186798647816
1.1628681672330474,11.84976601600647,0.0981342724963737
1.1662681642376622,11.883316278457642,0.09814332438091385
1.1696681824445418,11.917315483093262,0.09814862953858317
1.1730681893139963,11.95222520828247,0.09814642619862127
