Distance,Time,Velocity
0.0,0.03169679641723633,0.0
2.155830312976483e-06,0.06591057777404785,3.270841169632921e-05
0.001151145405674406,0.10002923011779785,0.011508090228414012
0.0034599130508050813,0.1350083351135254,0.025627403285106213
0.006856180599146766,0.16950345039367676,0.040448619678378726
0.010252755618423544,0.20365309715270996,0.050344216521958814
0.013649719322018434,0.23682093620300293,0.057637299897834594
0.017047072194721093,0.271242618560791,0.06284805936903494
0.020444814260840615,0.3061032295227051,0.06679058660282489
0.023842942812431885,0.34372520446777344,0.06936629174270321
0.027241454508976064,0.37730956077575684,0.07219921608391536
0.03064034761258107,0.41197681427001953,0.07437396123097997
0.03403962029147608,0.44574546813964844,0.07636560038073509
0.03743926983933847,0.4798135757446289,0.07802878395267575
0.04083929154812429,0.5136415958404541,0.07950931520898412
0.04423968319124062,0.5493230819702148,0.08053490676665097
0.047640444654918006,0.5860605239868164,0.08128929130191627
0.05104157341335594,0.6197288036346436,0.0823611442844072
0.05444306706215806,0.6546049118041992,0.08316935311729327
0.057844923271637254,0.6878035068511963,0.08410094263179119
0.06124713955631385,0.7239582538604736,0.08460037471734914
0.06464971336232984,0.7608094215393066,0.08497491162967909
0.06805264237264723,0.7957720756530762,0.08551775622033184
0.07145592412652371,0.8286628723144531,0.08623039177192471
0.07485955596267903,0.863375186920166,0.08670570697047504
0.07826353548462542,0.9015486240386963,0.08681011029003155
0.08166785226830826,0.9394142627716064,0.08693486516519244
0.08507227141300572,0.9741313457489014,0.08733141766175598
0.08847620377120415,1.008033037185669,0.0877711349800808
0.09187920462003611,1.0417249202728271,0.08819910403599926
0.09528088840622075,1.0766026973724365,0.08850143942492797
0.09868136973602384,1.1134498119354248,0.08862668858373918
0.10208064913267843,1.1477434635162354,0.08894030101460426
0.10547872641189704,1.1823582649230957,0.08921046144905809
0.10887576484425725,1.217287302017212,0.089441304993353
0.11227224065049747,1.2529160976409912,0.0896087462375855
0.1156685172629222,1.2880918979644775,0.08979834237425818
0.11906518884841504,1.3212318420410156,0.09011680241106303
0.12246224811863493,1.3554799556732178,0.0903460413457847
0.12585970091834578,1.3894906044006348,0.09057974233128127
0.12925753842574597,1.4232821464538574,0.0908165248526403
0.13265575778094554,1.4577453136444092,0.09100064087964857
0.13605435625926723,1.492307186126709,0.09117047584043136
0.139453330614015,1.5264418125152588,0.09135843205462571
0.1428526767895899,1.562208652496338,0.09144276378274942
0.14625239027124776,1.597785472869873,0.09153443485035294
0.14965246097040905,1.6318137645721436,0.09170927725912856
0.15305288043571086,1.6658811569213867,0.09187502950003862
0.15645362906762256,1.7007496356964111,0.0919909819669366
0.15985468391662813,1.736539602279663,0.09205357810831206
0.16325637719126565,1.7697160243988037,0.09225004178098349
0.16665845796982554,1.8037798404693604,0.09239401296693694
0.17006093606654202,1.837644100189209,0.0925429118995523
0.1734638288784626,1.8730182647705078,0.09261192597057578
0.17686714776557233,1.9104704856872559,0.09257779645936152
0.18027073746170968,1.9431297779083252,0.09277339038865508
0.18367384302941844,1.9773757457733154,0.09288767874392378
0.18707635344809267,2.0106277465820312,0.0930437540047447
0.19047786912471498,2.0450363159179688,0.0931415582413332
0.19387824604983106,2.078477621078491,0.09327896729974437
0.19727747813503044,2.112250804901123,0.09339680575681694
0.20067576082913985,2.1463828086853027,0.09349486029104812
0.20407333154851773,2.183623790740967,0.09345626861817151
0.20747064345773564,2.2165677547454834,0.0935999556131585
0.210867989942376,2.2504255771636963,0.09370138345483149
0.21426575643341872,2.2846386432647705,0.09378540324750478
0.2176640353309067,2.3190908432006836,0.09385748556123769
0.2210628238060859,2.3535213470458984,0.09392853992319226
0.22446211623086346,2.3899950981140137,0.09391739606829753
0.22786191113243043,2.423546075820923,0.09402004500997457
0.2312622010803381,2.45841646194458,0.09406957879602396
0.23466298918737993,2.4917945861816406,0.09417429128737743
0.2380642733140396,2.5260000228881836,0.09424555469395489
0.24146605092223453,2.5598652362823486,0.09432764174449738
0.24486824646071642,2.5946381092071533,0.09437472054071583
0.2482705951051747,2.631381034851074,0.09434992189157655
0.25167271789532863,2.6641199588775635,0.09446748711772063
0.2550743962772764,2.6982364654541016,0.094533744370825
0.2584754102364811,2.7327208518981934,0.09458536903135926
0.26187565336347246,2.7675974369049072,0.09462201759239103
0.2652751378104127,2.801041841506958,0.09470588188989526
0.2686739836687341,2.8350207805633545,0.09476966994765561
0.2720723918897846,2.8700177669525146,0.09479815596357112
0.27547056441341466,2.9035401344299316,0.09487403364841016
0.2788687850248479,2.937819004058838,0.0949237460304967
0.2822672683942792,2.971204996109009,0.0950009402797609
0.28566621603635384,3.005082845687866,0.09506101186071114
0.28906569484718786,3.0400164127349854,0.09508688625372473
0.2924656819730342,3.0742337703704834,0.09513449653433104
0.29586616809370536,3.1102075576782227,0.09512746741396583
0.29926715113608704,3.144456624984741,0.09517293027934175
0.30266848078874437,3.1783370971679688,0.09522856498086205
0.3060699268188158,3.213144063949585,0.09525558789996977
0.3094713339417477,3.246572971343994,0.09532246361726927
0.3128724845803481,3.279982805252075,0.09538845267095937
0.31627326173656073,3.3140790462493896,0.09543322815262767
0.3196735820254429,3.350968360900879,0.09539737401146378
0.3230734243005206,3.3838391304016113,0.09547540880354338
0.3264728438049398,3.4176180362701416,0.09552642815556997
0.32987192775684016,3.451489210128784,0.09557379660605451
0.3332708314615796,3.4844720363616943,0.09564457053573137
0.33666968861268587,3.5191798210144043,0.0956670888490264
0.3400686687516161,3.5522539615631104,0.09573320838861829
0.3434678960992952,3.585974931716919,0.09578089714499123
0.3468674564149283,3.6217658519744873,0.09577302083894398
0.350267414672544,3.655103921890259,0.09582967328912528
0.3536677402332027,3.688854217529297,0.0958746861159725
0.3570683637946358,3.7233967781066895,0.09589855314216647
0.36046920078022504,3.7577860355377197,0.0959259514435456
0.3638700971224589,3.7930233478546143,0.09593141506188428
0.3672709445116375,3.830338716506958,0.09588471717367253
0.3706716399504017,3.8629088401794434,0.095956610752736
0.3740720894189481,3.8953123092651367,0.09603134735286938
0.3774722523868477,3.9305877685546875,0.09603455630902948
0.3808721368653271,3.964899778366089,0.09606097459095983
0.38427175223744386,3.99855637550354,0.09610262208421466
0.38767117566777276,4.032924175262451,0.09612657189185667
0.39107049166996466,4.066639423370361,0.09616551923009002
0.39446979662809895,4.102317810058594,0.09615778564519961
0.39786917848647463,4.13587760925293,0.09619945657877975
0.40126872440278444,4.169721841812134,0.0962339310932059
0.40466849344445394,4.204028367996216,0.09625731751123573
0.40806849832454567,4.238787889480591,0.09627009158378746
0.4114687293974705,4.272674322128296,0.09630238543257622
0.4148691179023933,4.306089639663696,0.09634474723447568
0.4182696173421397,4.340750455856323,0.09635882587487407
0.4216701740310498,4.375028848648071,0.09638111852938985
0.4250706767949557,4.409569025039673,0.0963973291678162
0.42847109757963797,4.4434263706207275,0.09642808541008466
0.4318713721291725,4.477350234985352,0.09645691077606428
0.43527145903859527,4.510842323303223,0.09649449655776318
0.4386713783334488,4.545518398284912,0.09650634754860209
0.4420711365070524,4.5804524421691895,0.09651254806996716
0.4454707799000141,4.6156721115112305,0.09651265712506628
0.44887036387966567,4.649156093597412,0.09654878322924622
0.4522699318735133,4.682819604873657,0.09658068643148503
0.4556695552240682,4.716746807098389,0.09660674483063539
0.4590692821840952,4.750467300415039,0.0966366576492353
0.46246912891260467,4.78512716293335,0.09664719727722025
0.46586911038901613,4.822364330291748,0.09660595477256932
0.46926923005413623,4.854615688323975,0.09666454775870188
0.4726694725970099,4.88809061050415,0.09669818140876474
0.47606980114080527,4.921973466873169,0.09672335788580406
0.4794701701210464,4.956084489822388,0.0967437442008236
0.4828705179165015,4.989683389663696,0.09677377905716116
0.48627081219515095,5.023274898529053,0.09680354390669399
0.4896709958139227,5.058379173278809,0.09680393245343076
0.4930710708103308,5.094417333602905,0.09678654859271571
0.4964710310473766,5.1292102336883545,0.0967928800786101
0.49987086798589747,5.162445545196533,0.0968283081360556
0.5032706340646529,5.1965858936309814,0.09684639961045759
0.5066703412845988,5.229366779327393,0.09688942517620983
0.5100700441683699,5.2629194259643555,0.09691769964251482
0.5134697933234846,5.2981343269348145,0.09691520856938102
0.5168696001007859,5.333575248718262,0.09690865432619468
0.5202695107825392,5.369454622268677,0.09689429325370058
0.5236695098760888,5.401059865951538,0.09695680530729144
0.5270696075455324,5.435053586959839,0.09697597256632662
0.5304697937269888,5.469530344009399,0.09698635172725484
0.5338700220127245,5.502870321273804,0.09701664601268385
0.5372702661912189,5.537190198898315,0.09702940424515573
0.5406704990695566,5.570515155792236,0.0970593354381894
0.5440706724819789,5.604689836502075,0.09707418043699223
0.5474707793343953,5.639721632003784,0.09707407830692519
0.5508708039554634,5.673305034637451,0.09709874589718168
0.5542707660121877,5.707823753356934,0.09710719706196347
0.5576706416624299,5.742788553237915,0.09710798795613021
0.5610704801923647,5.777145147323608,0.09711898626128394
0.5644703024663966,5.812867879867554,0.09710702430058639
0.5678701056671052,5.845826625823975,0.09714111314190119
0.5712699528533969,5.8799803256988525,0.09715507896457116
0.5746698411953312,5.914632320404053,0.09716070417646402
0.5780698072872964,5.949370861053467,0.09716486344321397
0.5814698263537516,5.9834959506988525,0.09717894540997188
0.5848699142393667,6.018509387969971,0.09717853317773789
0.5882700403757117,6.053983211517334,0.09717074194334795
0.5916701877782414,6.090115547180176,0.09715253892878839
0.5950703264723833,6.123465299606323,0.09717868843163696
0.5984704473682025,6.158238887786865,0.09718207725833766
0.6018705206715115,6.191995620727539,0.09720138022332672
0.6052705717854469,6.226170063018799,0.097213947845809
0.6086705804528432,6.260568618774414,0.09722289100506627
0.6120705598083811,6.297837257385254,0.09718742082301783
0.6154704928898589,6.333160638809204,0.09718220143008768
0.6188704091901913,6.365289688110352,0.09722580424676852
0.6222702941958635,6.399084091186523,0.09724365008000413
0.6256701846754116,6.433533430099487,0.09725140802847064
0.6290700886481685,6.468085527420044,0.0972575402692748
0.6324700119584117,6.501654863357544,0.0972783122529201
0.6358699788724671,6.537351369857788,0.09726721769986484
0.6392699914195554,6.574607849121094,0.09723317437176338
0.6426700622528376,6.608224391937256,0.09725306287071066
0.6460701403369343,6.6427648067474365,0.09725922249733784
0.6494702437753057,6.6768639087677,0.09727175102707368
0.6528703344312604,6.71294379234314,0.09725544479844025
0.6562704223871008,6.748746395111084,0.0972433077145283
0.6596704758639216,6.78392767906189,0.09724019875682749
0.6630704945442408,6.818630933761597,0.09724393371419039
0.6664704924327609,6.853126049041748,0.09725058136439085
0.6698704447634699,6.886611223220825,0.0972714188518073
0.6732703831238199,6.921554088592529,0.09727156278868679
0.6766703023427137,6.95656156539917,0.09727079908389859
0.6800702219154363,6.991558790206909,0.09727018570851641
0.6834701561693038,7.026258707046509,0.09727369638181182
0.6868701039727296,7.0628674030303955,0.09725088477209992
0.6902700823917737,7.0949180126190186,0.09729077646338682
0.6936700893609006,7.129383087158203,0.09729735110045824
0.6970701185734667,7.163738250732422,0.09730535848405658
0.7004701754590335,7.197080373764038,0.09732699081873543
0.7038702479788829,7.231373071670532,0.09733562920938894
0.707270325908261,7.265399217605591,0.09734775815132032
0.7106703896063906,7.299477815628052,0.0973590724647259
0.7140704427286478,7.33478856086731,0.0973539232662232
0.7174704485501023,7.368492603302002,0.09737004393932434
0.7208704373722045,7.401752471923828,0.09739185957738995
0.7242704058909908,7.435652494430542,0.0974050907346039
0.7276703729261219,7.4707252979278564,0.09740290854061448
0.7310703243977683,7.503919839859009,0.09742512446821452
0.7344702862699566,7.537786960601807,0.0974384511142137
0.7378702610685337,7.5741002559661865,0.09742018670630967
0.7412702320691262,7.606727600097656,0.09744929370937506
0.7446702082592648,7.640806436538696,0.09745963524193163
0.7480701988544897,7.6760687828063965,0.09745485873316949
0.7514701995266072,7.710240602493286,0.09746391043667324
0.7548701943488223,7.744783878326416,0.09746820649977175
0.7582701989554032,7.779601097106934,0.09746903337208222
0.7616702176452856,7.814274787902832,0.09747164494706745
0.7650702422397659,7.847830295562744,0.09748812263083029
0.7684702618116949,7.881105661392212,0.09750792526183986
0.7718702943673104,7.915571451187134,0.09751289583161422
0.7752703393901526,7.9496238231658936,0.09752289625717225
0.7786703841858816,7.983325242996216,0.09753709895121841
0.7820704274565633,8.017000675201416,0.09755149826489379
0.7854704610887525,8.050141096115112,0.09757226012694482
0.7888704710871856,8.086263179779053,0.09755686323194102
0.7922704811437529,8.11938190460205,0.09757768392378433
0.7956704700772026,8.153504133224487,0.09758632081082134
0.799070448264984,8.189018964767456,0.09757828766826836
0.8024704130768552,8.222803354263306,0.09759085539371382
0.8058703822858257,8.25702166557312,0.09759819156655807
0.8092703605467713,8.29150938987732,0.0976022968188118
0.812670343485113,8.326809167861938,0.09759684977790611
0.8160703329586286,8.360761404037476,0.09760717876299424
0.819470332751986,8.395718812942505,0.09760573823514947
0.8228703428506936,8.428331136703491,0.09763146814050505
0.8262703637113493,8.461372375488281,0.09765205064192292
0.8296703930577082,8.49570345878601,0.0976576450770168
0.8330704268043515,8.528753519058228,0.09767786405631075
0.8364704534855524,8.562808513641357,0.09768646024875792
0.8398704721265319,8.598920345306396,0.0976716190405187
0.8432704763160762,8.632622480392456,0.09768416008361569
0.8466704670469011,8.667675256729126,0.09768137845145856
0.8500704571643045,8.701758623123169,0.0976895009366743
0.8534704259402194,8.736065864562988,0.09769505394896805
0.8568704071329133,8.770474672317505,0.09769943351384132
0.8602703901747494,8.807040691375732,0.09767984733137051
0.8636703797014175,8.840254783630371,0.09769745339248463
0.8670703795275501,8.874680995941162,0.0977015827300277
0.8704703896474996,8.90848970413208,0.09771245391278208
0.8738704105150779,8.942149877548218,0.09772486733969593
0.8772704398639931,8.977298974990845,0.09772097847113172
0.8806704736183866,9.011456966400146,0.09772786763583609
0.8840704930790284,9.046750545501709,0.09772243510335459
0.8874704983095134,9.080141305923462,0.09773752064084829
0.8908705053362279,9.114145040512085,0.0977459214634326
0.8942704844398434,9.1488196849823,0.09774708817442099
0.8976704630944594,9.184105396270752,0.09774174232135474
0.9010704451063143,9.217114448547363,0.0977605789899164
0.904470437554148,9.250596761703491,0.0977742799576522
0.9078704405802205,9.286791801452637,0.09775931882506633
0.9112704540899932,9.31977105140686,0.09777820174589298
0.914670473269198,9.353131771087646,0.09779296343248609
0.9180704872295452,9.38710641860962,0.09780122289968948
0.9214705030281785,9.422090530395508,0.09779894388145921
0.9248704942537722,9.456032276153564,0.09780745953946578
0.9282704774865048,9.490584135055542,0.09780962523241699
0.931670469538201,9.526510238647461,0.09779766632261302
0.9350704722384234,9.559644222259521,0.09781435903871011
0.9384704854086166,9.59363842010498,0.09782216551354529
0.9418705042246593,9.62867283821106,0.09781934852816666
0.9452705054706724,9.663210391998291,0.09782157969502683
0.9486705094460278,9.697190523147583,0.09782941844666383
0.952070500015943,9.730790853500366,0.09784101974337096
0.9554704829089928,9.766023874282837,0.09783618135780539
0.9588704745528893,9.800144910812378,0.09784247919589224
0.9622704768451557,9.834600448608398,0.09784540631554763
0.9656704895969884,9.867849588394165,0.09786027654218997
0.9690705079875439,9.901854515075684,0.09786757687785892
0.9724705211396559,9.936051368713379,0.09787293614461066
0.9758705361159405,9.96968698501587,0.09788376882670878
0.9792705265112255,10.002373456954956,0.09790381560191684
0.9826705089041039,10.037096500396729,0.09790386182550528
0.9860705001284422,10.071267366409302,0.09790927638534185
0.9894705020052988,10.105828762054443,0.0979108715675632
0.9928705143543084,10.140073776245117,0.09791551188515807
0.9962705323799623,10.174333333969116,0.09791998155335713
0.9996705390965365,10.208828926086426,0.09792215604104183
1.003070542098207,10.243057012557983,0.09792687289238387
1.006470531977599,10.279037475585938,0.09791486161696546
1.009870514195946,10.311756372451782,0.09793389968888816
1.0132705052164503,10.345943212509155,0.09793892005818447
1.0166705069072597,10.380218505859375,0.09794307377377215
1.0200705190811559,10.416487455368042,0.09792845462080135
1.0234705369299817,10.450586795806885,0.09793426502525499
1.0268705596227623,10.486378908157349,0.09792422805015755
1.0302705749742334,10.520326137542725,0.09793142926411955
1.0336705690127228,10.55366325378418,0.09794424401802702
1.0370705639961346,10.587589025497437,0.0979515318830965
1.0404705460729353,10.62100076675415,0.0979635129421905
1.0438705318500987,10.655691146850586,0.09796366255966671
1.0472705199373737,10.690132141113281,0.09796609678094306
1.0506705183060647,10.726745843887329,0.09794867274727058
1.0540705269689388,10.760316848754883,0.09795906029392706
1.05747054638414,10.793959379196167,0.09796873503362123
1.0608705742819065,10.82931113243103,0.09796288621765323
1.0642705876309027,10.863253831863403,0.0979697799667768
1.067670600080789,10.897159576416016,0.09797696295018714
1.0710705924692954,10.931319952011108,0.09798181712467792
1.0744705707819497,10.96695852279663,0.0979734325199175
1.0778705577139047,11.000695705413818,0.0979820355528467
1.0812705491849073,11.035262107849121,0.09798322310947423
1.0846705455826513,11.069390773773193,0.097988278465385
1.088070551000421,11.104459285736084,0.0979850097156978
1.0914705666984132,11.139328479766846,0.09798351567430019
1.0948705928758886,11.172819137573242,0.09799412121457617
1.0982706099881598,11.206986665725708,0.09799874335060979
1.1016706194596886,11.243016004562378,0.09798710764199164
1.1050706036672069,11.27698016166687,0.0979934865384976
1.1084705990022612,11.311042547225952,0.09799897705045015
1.1118705726728262,11.34495234489441,0.09800575082831471
1.1152705657306536,11.380138874053955,0.09800148997068961
1.118670567448093,11.414674520492554,0.09800284409684783
1.1220705737366299,11.452998638153076,0.09797177221332284
1.1254705864575942,11.486651182174683,0.0979807403052451
1.1288706093923069,11.521240234375,0.09798169176476211
1.1322706304462975,11.554920673370361,0.0979903421626896
1.1356706266710597,11.590327978134155,0.09798433908113471
1.1390706148692231,11.627137184143066,0.09796655847689424
1.1424706073814905,11.661319494247437,0.0979709549974233
1.1458705818544546,11.695581912994385,0.09797465319629237
1.1492705714425628,11.730287313461304,0.09797463103258319
1.1526705715781391,11.765225172042847,0.09797267410717954
1.1560705821914754,11.802562236785889,0.09795081432303468
1.1594705984480178,11.839397192001343,0.09793324606352022
1.1628706195296878,11.875941753387451,0.09791818145268309
1.1662706423124236,11.911303758621216,0.09791292926001448
1.1696706611731007,11.945749759674072,0.09791521542847169
