Distance,Time,Velocity
0.0,0.03481554985046387,0.0
1.8721380532663164e-06,0.06725263595581055,2.7837392938715973e-05
0.0011519528850441078,0.10332155227661133,0.011149202268662322
0.003462003559509656,0.13530802726745605,0.0255860914494489
0.006860089344989227,0.1693878173828125,0.040499307748240156
0.010259473761317812,0.20720791816711426,0.04951294261372528
0.013660056049304403,0.24219655990600586,0.056400702200748595
0.01706184006530799,0.27594804763793945,0.06182989954578029
0.020464734601619662,0.31164026260375977,0.06566781336479584
0.023868057491686093,0.34395813941955566,0.06939233225288542
0.027271706727073727,0.3784964084625244,0.07205274902832783
0.030674792150527732,0.4110751152038574,0.07462089291227397
0.03407728632267614,0.44422054290771484,0.07671254035128125
0.03747913039247641,0.47760558128356934,0.07847297406313994
0.04088032249443372,0.5118732452392578,0.07986415167162253
0.04428086775141238,0.5512526035308838,0.08032772537995198
0.047680767398212434,0.5855090618133545,0.08143472152342512
0.05108002568620627,0.6187102794647217,0.0825588767175458
0.05447865067393634,0.6510438919067383,0.08367892142322776
0.05787664646795531,0.6839375495910645,0.08462270641897135
0.06127401697677892,0.7182824611663818,0.08530629702036606
0.0646709798391305,0.7524197101593018,0.08595067216598887
0.0680679582537055,0.7857298851013184,0.08663022693215781
0.07146557209895292,0.8203070163726807,0.08712051789458886
0.07486382904121595,0.854975700378418,0.08756252254664164
0.07826310725912002,0.8879234790802002,0.08814172516329083
0.08166338952410053,0.9223043918609619,0.08854277421288843
0.08506458482308625,0.9553658962249756,0.08903874961332585
0.08846654338877957,0.9889824390411377,0.0894520872125412
0.09186874072670215,1.02313232421875,0.08979165114038584
0.09527110843513095,1.0573391914367676,0.09010458441975616
0.09867302715055612,1.0915167331695557,0.09039992164300453
0.10207440774116897,1.1273155212402344,0.09054644047557348
0.1054751428723734,1.1604621410369873,0.09089063670627029
0.108875232440604,1.1945769786834717,0.09114124446010506
0.11227467534753893,1.2284235954284668,0.09139736143571729
0.11567348215459468,1.2648301124572754,0.0914537699690495
0.1190717894263145,1.2975308895111084,0.09176798054586514
0.12247005562568788,1.3313846588134766,0.09198698123413304
0.1258681476149786,1.3668389320373535,0.09208703722490898
0.1292667691718419,1.3999812602996826,0.09233464249669372
0.132665808590324,1.4339375495910645,0.09251854003555324
0.13606541759468285,1.4672813415527344,0.09273301155093618
0.1394655983468481,1.5015451908111572,0.09288138592186272
0.14286649457847844,1.5353050231933594,0.09305414391292952
0.14626753760769712,1.5772812366485596,0.09273396158473898
0.1496691283797441,1.6090431213378906,0.09301747504149976
0.1530703713045016,1.6427290439605713,0.09318053507805124
0.1564715426169312,1.6767182350158691,0.09332011744683523
0.15987234798755257,1.7100086212158203,0.09349212980802572
0.16327267205308235,1.744020700454712,0.09361854019881352
0.16667245135187386,1.7782516479492188,0.09372827043016664
0.17007183248190957,1.8142046928405762,0.09374456650512848
0.17347085523702774,1.8483285903930664,0.09385282256556847
0.17686980608396055,1.8806660175323486,0.09404636678448319
0.18026871749850923,1.9143283367156982,0.09416812886329927
0.18366771486986144,1.9474742412567139,0.09431072872693805
0.18706715318986172,1.9818708896636963,0.09438917245593387
0.19046682197207035,2.0166053771972656,0.09444922845380213
0.19386675869184575,2.0495877265930176,0.09458817311230976
0.1972672220969458,2.083005905151367,0.09470315067715128
0.20066784805557913,2.1191043853759766,0.09469464998534094
0.20406859569754512,2.1517410278320312,0.09483882728357546
0.20746939411859885,2.187797784805298,0.09483024233753053
0.21086995896085953,2.2228801250457764,0.09486339662896442
0.21427065992486952,2.25831937789917,0.0948805833319278
0.2176707483063009,2.291569948196411,0.09498760815816226
0.22107055450685886,2.3269598484039307,0.09500402624415366
0.2244702128120693,2.3598434925079346,0.09512080505538634
0.22786986671286868,2.392829656600952,0.09523029191996935
0.23126932171399814,2.4256298542022705,0.09534402840290605
0.23466869792667658,2.459181785583496,0.09542551888696434
0.23806807676956962,2.4935500621795654,0.09547355009246486
0.24146780054776593,2.527667284011841,0.09552989907932628
0.2448676869807602,2.5634777545928955,0.09552167423416846
0.24826758558101406,2.5961127281188965,0.0956305105290651
0.2516679185112296,2.6320531368255615,0.09561657969214046
0.2550682740597169,2.665097236633301,0.09570692977113786
0.25846881011756,2.699345588684082,0.09575239687763074
0.26186931386098694,2.7320215702056885,0.09585184711454212
0.2652698617868835,2.7663567066192627,0.0958914160101454
0.26867025140381634,2.8004486560821533,0.0959382886096858
0.27207049598025684,2.834653377532959,0.09598016397230333
0.275470582138224,2.872310161590576,0.09590558353408424
0.27887050692730186,2.9080193042755127,0.09589706179642368
0.28227027588652903,2.940680503845215,0.09598808014588264
0.2856699238494162,2.973863363265991,0.0960602048426611
0.28906950950799803,3.0063014030456543,0.0961545336788735
0.2924691071258828,3.0403501987457275,0.09619586166308691
0.2958687407477497,3.074049949645996,0.09624721315339121
0.2992685053053422,3.108283519744873,0.09628095487566915
0.30266836012114756,3.1427128314971924,0.09630799132765687
0.30606838234936584,3.175553798675537,0.09638267897619027
0.3094685338754793,3.2146337032318115,0.0962686770702233
0.31286877166296845,3.249316692352295,0.09628755867328885
0.31626909203309456,3.281338691711426,0.0963841656553107
0.31966941649126807,3.314290761947632,0.09645183221746526
0.32306973845915626,3.3474879264831543,0.09651109893578344
0.32646998228425594,3.3811442852020264,0.09655606349397451
0.3298701259988671,3.4161365032196045,0.09656233750846155
0.33327017393831954,3.4499008655548096,0.09660282626258113
0.3366701010818253,3.4835782051086426,0.09664490970465398
0.340069935803056,3.5171573162078857,0.09668886126757367
0.3434696932732792,3.55328106880188,0.09666268629548427
0.3468694234036328,3.585987091064453,0.09672913331672624
0.35026915547390813,3.6215314865112305,0.09671851722911202
0.35366893137055433,3.657341241836548,0.09670110279153446
0.35706877088370775,3.6897687911987305,0.09677266817786255
0.360468696171762,3.723447799682617,0.09681046050987689
0.3638687087907167,3.7579197883605957,0.0968271621756609
0.3672687911473683,3.7907700538635254,0.09688500909546087
0.37066895077907924,3.8246681690216064,0.0969153229504615
0.3740691469407799,3.8579349517822266,0.09696097824769531
0.3774693681017349,3.895416259765625,0.09690090684286615
0.3808695644497916,3.930060863494873,0.09691187431410334
0.3842697246433186,3.962787628173828,0.09696954787869913
0.3876698201337837,3.996661901473999,0.09699840258962314
0.39106984431542396,4.0295350551605225,0.09705086044966672
0.39446978083029527,4.0634965896606445,0.09707643949646791
0.397869667905031,4.096957206726074,0.09711345465162259
0.4012695018534208,4.131874084472656,0.09711561718721497
0.4046693302336531,4.1682422161102295,0.09708392872890369
0.4080691702101886,4.203689098358154,0.0970740605839688
0.41146905814835455,4.238474369049072,0.0970795202049718
0.4148689718820026,4.271219491958618,0.09713126957373
0.41826895192165664,4.305108547210693,0.09715642412608985
0.42166897101685225,4.337518692016602,0.09721432942593491
0.4250690501681647,4.371554374694824,0.0972352197261274
0.42846914579551587,4.407069206237793,0.09722314893286858
0.43186927254716595,4.439481735229492,0.09727920921941605
0.4352693938105236,4.473409175872803,0.09730149349139264
0.438669501474773,4.506116628646851,0.09734978865970938
0.44206957795473545,4.539761543273926,0.09737726833025012
0.4454695958116181,4.577821493148804,0.09731039021034583
0.44886956871320904,4.614325761795044,0.09727739043257143
0.45226950070898947,4.648712635040283,0.09728919299075374
0.45566939897571745,4.680907726287842,0.09734637502394917
0.45906930045585465,4.7159764766693115,0.09734342457536499
0.4624692024776724,4.749100685119629,0.09738037433628824
0.46586912176357514,4.782510995864868,0.09741098811197349
0.46926906851380623,4.816015005111694,0.09743928704867538
0.47266904912964597,4.849825620651245,0.09746104006646221
0.4760690643090231,4.887099742889404,0.09741341273046258
0.47946910016864946,4.919910907745361,0.09745483386982202
0.4828691813885958,4.955606460571289,0.09743896841496369
0.4862692624620253,4.987996578216553,0.09748789014524341
0.4896693435035318,5.021416187286377,0.09751618372986406
0.4930694287331594,5.055315017700195,0.09753485727531784
0.4964694774442406,5.0902721881866455,0.09753299216423679
0.4998695056489993,5.123528957366943,0.09756351721800155
0.5032695019260921,5.159515142440796,0.09754201471109783
0.506669464177484,5.192082405090332,0.09758501977563837
0.5100694153370651,5.229016065597534,0.09754596446794012
0.5134693497890305,5.26304817199707,0.09756121034974184
0.5168692885066974,5.296652793884277,0.09758413636315655
0.5202692159478843,5.330420017242432,0.09760379374701386
0.5236691637892059,5.36310887336731,0.09764283667439558
0.5270691338988228,5.396343231201172,0.09767153631951289
0.5304691305951041,5.431898593902588,0.09765814317494183
0.5338691602261199,5.464448690414429,0.0976986317325327
0.5372691918909879,5.498092412948608,0.09771919995845472
0.5406692428200343,5.532548666000366,0.09772516709028772
0.5440692757971077,5.568931818008423,0.09769724133409831
0.5474692979098131,5.602466344833374,0.09771933720131891
0.5508693179293378,5.639851808547974,0.09767443128459853
0.5542693236746247,5.6709816455841064,0.09773780948598633
0.5576693233534065,5.705225467681885,0.09774711385420418
0.5610693278810841,5.738865852355957,0.09776658704276041
0.5644693193314682,5.772998094558716,0.09777749967794089
0.567869296927944,5.805485963821411,0.09781597965558578
0.571269274025968,5.840229034423828,0.09781624498949587
0.5746692521012003,5.880498647689819,0.09772457856562246
0.5780692131504682,5.914427995681763,0.09773881997929937
0.581469165669568,5.9462761878967285,0.09778711033522323
0.5848691433405491,5.979845762252808,0.09780672722906641
0.5882691210247277,6.0129194259643555,0.0978341932347415
0.5916691197958159,6.0464560985565186,0.09785386847298307
0.595069125123926,6.0800461769104,0.09787246803877281
0.5984691498150218,6.114333629608154,0.09787970138184551
0.6018691736208125,6.147419691085815,0.09790598395186269
0.6052692099297755,6.181982040405273,0.09790860050607585
0.6086692301300176,6.218106508255005,0.09788658803479217
0.6120692395015095,6.253870725631714,0.09787046556509742
0.6154692402178789,6.28807258605957,0.0978788383553892
0.6188692363781984,6.322564601898193,0.09788262759583322
0.6222692261115832,6.356001615524292,0.09790262239577069
0.6256692056301059,6.3884477615356445,0.0979375943867323
0.6290691749364286,6.422222137451172,0.0979519489473921
0.6324691384025912,6.457008123397827,0.09795080419842671
0.6358691268897302,6.490384578704834,0.09797094751149844
0.6392691234318993,6.524159669876099,0.09798489855844374
0.6426691232889172,6.557573318481445,0.09800410793389983
0.6460691495141062,6.590644836425781,0.09802821507591365
0.6494691676352922,6.631170988082886,0.09794185202017508
0.6528691833861754,6.663588762283325,0.09797561144251422
0.6562691888100495,6.698559999465942,0.09797168180360734
0.6596691838929748,6.732736587524414,0.09797935435574959
0.6630691681996933,6.766031503677368,0.0979997163535689
0.6664691439730784,6.799226760864258,0.09802131439551558
0.6698691267545347,6.834193229675293,0.09801729395736761
0.6732691088365053,6.870009899139404,0.09800118467381606
0.6766691173685296,6.90387225151062,0.09801298354274578
0.6800691292428868,6.936654329299927,0.0980399335123741
0.683469142484679,6.970422029495239,0.09805276346146465
0.6868691548933114,7.005094528198242,0.09805280316038487
0.6902691621813628,7.03948712348938,0.09805674050856217
0.6936691604621927,7.073014974594116,0.09807262715458888
0.6970691484700139,7.107207775115967,0.09807918531812446
0.7004691260008109,7.142181634902954,0.09807495269760508
0.703869100945734,7.175216913223267,0.09809725747086026
0.7072690947040831,7.20842719078064,0.09811697836230611
0.7106691025675759,7.242381572723389,0.09812643747522673
0.7140691109021107,7.275540113449097,0.09814654304250599
0.7174691349097722,7.312081336975098,0.09812105498358403
0.720869145950161,7.346625089645386,0.09812248987173465
0.7242691481243027,7.380282402038574,0.09813569571866868
0.7276691457299432,7.414905071258545,0.09813600292072716
0.7310691368952175,7.447694540023804,0.09816046200155798
0.7344691178298917,7.482189893722534,0.09816231989061147
0.7378690885372862,7.515564203262329,0.09817880182794454
0.7412690651866801,7.55003809928894,0.09818083769093729
0.7446690551839612,7.584413766860962,0.0981841284078789
0.7480690663826925,7.62023401260376,0.09816877869438088
0.7514690766236148,7.6565163135528564,0.0981476491199312
0.7548690996963725,7.690971851348877,0.0981500276280403
0.75826911905947,7.723503351211548,0.09817683563774515
0.7616691360476042,7.756529092788696,0.09819716098992444
0.7650691427061931,7.791096210479736,0.09819788153522031
0.7684691390240341,7.824655055999756,0.09821124810285287
0.7718691245572684,7.858232498168945,0.09822426668301332
0.7752691015596731,7.895206451416016,0.09819491185320779
0.7786690741222039,7.929602146148682,0.09819774810523056
0.7820690489885141,7.965648412704468,0.09818021188848693
0.7854690237100389,7.999447584152222,0.09819040820595396
0.7888690229839086,8.033103942871094,0.09820226759097066
0.7922690251167118,8.065892934799194,0.09822458982793773
0.795669040465371,8.09937596321106,0.09823831417129597
0.7990690697198272,8.13256287574768,0.09825550468263222
0.8024690838553336,8.165781259536743,0.09827217486607752
0.8058690874365844,8.199811458587646,0.09827897769437116
0.8092690805279152,8.234323501586914,0.09827997167854206
0.8126690679485916,8.27285885810852,0.09823316000998446
0.816069050522313,8.308133840560913,0.09822531343178473
0.8194690313692075,8.3437340259552,0.09821370489759754
0.8228690161196629,8.375975131988525,0.09824157822258327
0.8262690139087692,8.40837550163269,0.09826737801473412
0.8296690328500611,8.441662311553955,0.09828266071654011
0.8330690403058454,8.4749276638031,0.09829807089256122
0.8364690622388273,8.508727073669434,0.09830719154540887
0.8398690692161345,8.542484521865845,0.0983167212145783
0.843269065852495,8.575287103652954,0.09833712337086346
0.8466690517096375,8.610843181610107,0.09832591696918143
0.8500690290151306,8.64452075958252,0.09833616607060865
0.853469013307021,8.677526235580444,0.09835395366568223
0.8568689968749933,8.712300062179565,0.09835163972309621
0.8602690068581978,8.746896266937256,0.09835134436313864
0.8636690201840236,8.780022621154785,0.09836751651448823
0.867069034832135,8.814885139465332,0.0983641897896275
0.8704690486255358,8.848724365234375,0.09837226392151042
0.8738690572638561,8.882744550704956,0.09837827174648445
0.8772690568635997,8.91923713684082,0.09835696073603073
0.8806690461629494,8.951676368713379,0.09838034909762132
0.8840690249650751,8.985795736312866,0.09838516820412772
0.887468993373172,9.019938945770264,0.09838968963191645
0.8908689886521411,9.053479194641113,0.09840073296677586
0.8942689844411488,9.087503671646118,0.09840645096313454
0.897668987770654,9.121590375900269,0.09841145576349751
0.9010690102101739,9.15539264678955,0.0984194829182061
0.9044690227067479,9.19165587425232,0.09840109715599209
0.907869026250892,9.22380518913269,0.09842673469735959
0.9112690252507981,9.26028847694397,0.09840611634504179
0.914669017823129,9.296287775039673,0.09839078134811996
0.9180690001798465,9.33098816871643,0.0983892577699127
0.9214689749700408,9.364009618759155,0.09840538535159542
0.9248689665378326,9.399592161178589,0.09839458464566678
0.9282689587825004,9.43230390548706,0.09841380940265271
0.9316689755820853,9.466121196746826,0.09842140790488371
0.9350689901074482,9.499006748199463,0.09843860678219757
0.938469010325694,9.533517122268677,0.09843890751856833
0.9418690155867008,9.570351600646973,0.09841529913310905
0.9452690103523418,9.603744983673096,0.09842712524742712
0.9486689993964059,9.639760255813599,0.09841209472240531
0.9520689835578319,9.671749114990234,0.09843813897966203
0.9554689587688143,9.707168102264404,0.09842921732713486
0.9588689358245766,9.74006199836731,0.09844587601036915
0.9622689395088224,9.774107456207275,0.09845082467327602
0.9656689465686711,9.808082818984985,0.0984564429553426
0.9690689550967111,9.841941833496094,0.09846318658362509
0.97246897452251,9.875341415405273,0.09847446620989568
0.9758689830571043,9.911514520645142,0.09845810960821605
0.9792689812659862,9.946270227432251,0.0984558994350585
0.9826689686913284,9.979984521865845,0.09846397722745263
0.986068947570603,10.014847993850708,0.09846070036969774
0.989468933449953,10.048272371292114,0.09847154783312433
0.9928689186281354,10.082218647003174,0.09847722543918987
0.9962689302513127,10.11544680595398,0.09848985906039327
0.9996689452114762,10.151434183120728,0.09847563676014108
1.0030689542441913,10.184267282485962,0.0984920099229116
1.0064689528927329,10.222257852554321,0.09845857611987728
1.0098689407768626,10.25832986831665,0.09844379677201567
1.013268920132677,10.289560079574585,0.0984754364906308
1.0166689139939624,10.32301640510559,0.09848564354611845
1.0200689087287873,10.356371879577637,0.09849674389738008
1.0234689222484437,10.391139507293701,0.09849438760109563
1.026868937609319,10.427072763442993,0.09848103690323241
1.0302689470573199,10.458809614181519,0.09850728572975809
1.0336689460974389,10.492019891738892,0.09851953739730511
1.037068934369004,10.525133609771729,0.09853261467447502
1.0404689140928183,10.561009168624878,0.09851983815939581
1.0438689008046313,10.596156120300293,0.0985139223085596
1.0472688867903088,10.628219604492188,0.09853662473700335
1.0506688991772641,10.662920236587524,0.09853481746699362
1.0540689032880617,10.696717262268066,0.09854134473631618
1.057468918699291,10.730893611907959,0.0985443483966544
1.0608689180471738,10.764609813690186,0.09855154403255609
1.0642689066248434,10.798222064971924,0.09855964252459654
1.0676688866306572,10.83228850364685,0.09856355711641271
1.0710688810988158,10.866531133651733,0.09856585030911144
1.074468876419203,10.902987480163574,0.0985481161355129
1.0778688904937366,10.93705415725708,0.0985520300983914
1.0812689063905967,10.972243070602417,0.09854583966405249
1.0846689163593866,11.005218267440796,0.098559509679913
1.0880689159140666,11.038591384887695,0.09856954370135301
1.0914689046857822,11.072535037994385,0.09857443674285131
1.0948688849106734,11.106518507003784,0.09857894570834665
1.0982688606866624,11.14008641242981,0.09858710426709469
1.1016688507348014,11.17563796043396,0.0985777147251129
1.105068854976785,11.20867133140564,0.0985905306974687
1.1084688584276083,11.242794036865234,0.09859371743295553
1.1118688802591317,11.281168699264526,0.09855972460828635
1.1152688927468877,11.314962387084961,0.09856585064921378
1.1186689045397484,11.349204301834106,0.09856804713251696
1.122068907315181,11.383548974990845,0.09856933982366281
1.1254688997893347,11.416188478469849,0.09858534675665982
1.128868881762195,11.44994044303894,0.0985916815356448
1.132268853339004,11.483712673187256,0.09859780417379144
1.1356688398673844,11.517001152038574,0.09860803388617918
1.1390688270760112,11.551403045654297,0.09860869909690627
1.142468838923941,11.593644380569458,0.09854268437271362
1.1458688487396524,11.625163555145264,0.09856797655397237
1.1492688683929102,11.658273935317993,0.09857967609692837
1.1526688750621774,11.69173789024353,0.09858832672121837
1.1560688771243126,11.724694013595581,0.09860119810237879
1.1594688727135867,11.758511304855347,0.09860677450170215
1.162868858039482,11.792296171188354,0.09861258919875782
1.1662688331115976,11.825995922088623,0.09861907959339289
1.1696688141038574,11.86110258102417,0.09861383510628571
1.173068808426481,11.895651817321777,0.09861324343053858
