Distance,Time,Velocity
3.318559320092659e-08,1.0329835414886475,3.212596509824576e-08
2.9133128371158994e-07,1.0682487487792969,2.727185817390363e-07
0.0011542125970881445,1.1028475761413574,0.0010465749048717168
0.0034638400184316006,1.1372547149658203,0.003045790861843738
0.006861010365231956,1.1723339557647705,0.0058524367834728325
0.01025898752734521,1.206317663192749,0.008504383082804946
0.013657962885911588,1.2425646781921387,0.010991752079886216
0.017058149220030388,1.276801586151123,0.013360062679317015
0.020459302469834784,1.311596393585205,0.01559877914417709
0.023861262698829485,1.348454236984253,0.01769527066205372
0.02726372337199006,1.3835053443908691,0.019706265308280218
0.0306661028783239,1.419276237487793,0.02160685993912278
0.03406835005521629,1.45570707321167,0.0234033004868573
0.03747000734204058,1.4921298027038574,0.02511176123829305
0.04087101788413133,1.5293607711791992,0.026724248885119577
0.04427138282872355,1.5646758079528809,0.0282942847353442
0.04767109962051475,1.601689338684082,0.029763012382713637
0.051070176786316986,1.6379196643829346,0.03117990332301006
0.05446861993939623,1.6737308502197266,0.032543237123367603
0.05786673504947399,1.7095777988433838,0.03384855318583557
0.061264511753714536,1.747380256652832,0.03506077828249522
0.0646628059592506,1.782710075378418,0.036272194145491966
0.06806122780415959,1.8172283172607422,0.0374533167669068
0.0714604453737499,1.851952075958252,0.038586552158362014
0.07486028719480232,1.888944387435913,0.03963075233592187
0.07826083566449793,1.9270820617675781,0.040611055033491786
0.08166176971134481,1.9613730907440186,0.04163500054972591
0.08506337624608637,1.99582839012146,0.04262058635257197
0.08846489619748969,2.029670238494873,0.04358584686303127
0.09186629513214098,2.063572883605957,0.04451807632382274
0.09526745305133905,2.0981531143188477,0.045405386480703545
0.09866814637562014,2.131554365158081,0.046289293854488524
0.10206828699588547,2.1650450229644775,0.04714372491715158
0.10546786709702845,2.199397325515747,0.04795307599653318
0.10886698436089626,2.2342612743377686,0.048726165382410015
0.11226588636263268,2.2683145999908447,0.04949308458495387
0.11566465428790867,2.302842140197754,0.05022691406801167
0.11906324663008451,2.337894916534424,0.05092754417147961
0.12246247939459749,2.3725149631500244,0.05161715786694225
0.1258618559775365,2.406327962875366,0.05230453118582465
0.12926132436576449,2.4401168823242188,0.052973415045037796
0.13266178524431332,2.473936080932617,0.053623772362907156
0.13606214866604377,2.5079398155212402,0.05425255734765914
0.13946303461579734,2.541874408721924,0.05486621767671069
0.14286414179422718,2.5789597034454346,0.05539603492189652
0.14626507888842594,2.6117234230041504,0.0560032802861582
0.1496658944557582,2.6452548503875732,0.05657900766492487
0.1530665360034079,2.6793484687805176,0.057128267482532726
0.15646689930405236,2.713085412979126,0.057671202887874654
0.15986694495422193,2.7471508979797363,0.058193725387196096
0.163266679005023,2.7810516357421875,0.05870681324528933
0.1666661675411128,2.815680980682373,0.05919213457936619
0.17006549177673688,2.8508169651031494,0.05965500200767309
0.1734648171237837,2.884812593460083,0.060130359080181245
0.17686411580379985,2.9187214374542236,0.0605964356633036
0.18026362836340534,2.952653646469116,0.06105139645449805
0.18366326365971644,2.9864938259124756,0.061497955249782264
0.18706317926396437,3.020447015762329,0.06193228296598727
0.19046333324171227,3.0549495220184326,0.062345820076225494
0.1938636658457995,3.0898470878601074,0.06274215530195087
0.1972641523863673,3.1233553886413574,0.0631577671576388
0.20066471888261647,3.157658338546753,0.06354858485892056
0.2040652751661709,3.1915194988250732,0.0639398491036309
0.2074657547847009,3.225792646408081,0.06431465922514082
0.21086609727186068,3.259739875793457,0.064688013555233
0.21426622256530037,3.294435501098633,0.06503882759090186
0.2176661728714755,3.3312809467315674,0.06534008279458842
0.2210659595710194,3.363835334777832,0.06571842482462655
0.2244656108872919,3.3979310989379883,0.06605949454285516
0.2278651896987984,3.4328787326812744,0.06637729073547048
0.23126475677686475,3.4671618938446045,0.06670145896199385
0.2346643561464662,3.501753807067871,0.0670133793166225
0.23806404813933138,3.5348124504089355,0.06734842413259867
0.2414638801363388,3.5702483654022217,0.0676322360304857
0.2448638599314261,3.6037981510162354,0.06794605293372963
0.24826397901435265,3.638106346130371,0.0682398905898987
0.25166421429369257,3.672668695449829,0.06852352748438385
0.25506451777503114,3.708232879638672,0.06878330624151213
0.258464860285203,3.7465062141418457,0.06898823744361667
0.26186517906308876,3.7800920009613037,0.06927481632629434
0.2652654562810294,3.814669132232666,0.06953826061600621
0.2686656384483819,3.8482749462127686,0.06981456424073489
0.272065701899686,3.8826208114624023,0.07007269447907057
0.2754656548895145,3.916886568069458,0.07032770801562556
0.2788655155409845,3.950920343399048,0.0705824191082201
0.28226528932762657,3.9857890605926514,0.07081791962308619
0.2856650321486163,4.01978325843811,0.07106478478633489
0.28906475818982946,4.054210186004639,0.07129989441289879
0.2924645263630176,4.088490962982178,0.07153361203706604
0.29586434453798777,4.1218109130859375,0.07178018370485574
0.2992642465150069,4.1558496952056885,0.0720103633344216
0.30266422346847144,4.193130016326904,0.07218097752513743
0.3060642660726766,4.2264885902404785,0.07241573224151593
0.30946439600347253,4.260619401931763,0.07263366351454945
0.3128645707978723,4.295066595077515,0.07284277528000142
0.31626478916406864,4.3294923305511475,0.07304893161083574
0.3196649999308493,4.368095397949219,0.07318178080106243
0.32306517764908266,4.4019763469696045,0.07339093902026217
0.3264653213747135,4.435528516769409,0.07360234978547553
0.32986537345652484,4.4689836502075195,0.07381216833075846
0.3332653533637293,4.504469633102417,0.07398548120174483
0.33666525539455755,4.538214683532715,0.07418451502882292
0.3400651136983487,4.572668075561523,0.07436907907569668
0.3434649436247988,4.609313011169434,0.07451543056253798
0.3468647743120567,4.642431259155273,0.07471618963188945
0.3502646415705696,4.676872730255127,0.0748929170778317
0.3536645299755967,4.710870742797852,0.07507413157456969
0.35706447385839,4.745037317276001,0.07525008761435224
0.36046447211234023,4.779495000839233,0.07541894531724505
0.3638645182123579,4.81393575668335,0.0755856614220895
0.36726460390591276,4.850240468978882,0.0757209062632791
0.37066472343533957,4.883605241775513,0.07589981275812098
0.37406484440929866,4.919051170349121,0.07604410514451918
0.37746497579592947,4.953627347946167,0.0761997117026639
0.3808650736520323,4.988456964492798,0.07634927520934459
0.3842651371498934,5.0228352546691895,0.07650363144852969
0.38766515243900185,5.057236671447754,0.07665552902194382
0.3910651223274296,5.0918967723846436,0.076801463149907
0.3944650339773171,5.126808404922485,0.07694163753000269
0.3978649384934565,5.160773038864136,0.07709405848644428
0.4012648189670316,5.194815158843994,0.07724332949246367
0.40466471648003927,5.22914457321167,0.0773864082001274
0.4080646251282492,5.263123512268066,0.0775327852703954
0.4114645751020352,5.298877477645874,0.07765127177177837
0.4148645525413571,5.334683656692505,0.077767414009807
0.41826455646967314,5.367137432098389,0.07793065889616028
0.421664601861667,5.401476621627808,0.07806469071314663
0.4250646636957087,5.4352805614471436,0.07820473274383011
0.4284647602159639,5.469502210617065,0.07833706683292936
0.43186484413701126,5.5048558712005615,0.07845161694357408
0.4352649213913594,5.539367437362671,0.07857664730010976
0.43866498971409945,5.572699308395386,0.07871678794031496
0.442065015679406,5.606195449829102,0.07885294396806694
0.44546502544976757,5.640094041824341,0.07898184359097632
0.44886499536503743,5.673828840255737,0.07911147974368675
0.4522649484123584,5.707725286483765,0.07923733636644162
0.4556648919206473,5.741810321807861,0.07935909867833757
0.4590648230420646,5.776204824447632,0.07947516353628685
0.46246476236748857,5.811933279037476,0.07957158834488172
0.4658646902265173,5.8454062938690186,0.07969757221412335
0.46926465109511073,5.879735231399536,0.07981050721282446
0.4726646289161424,5.914434909820557,0.07991712414170148
0.47606465367295614,5.948188304901123,0.08003523581805465
0.47946468495068356,5.982181549072266,0.08014880207456097
0.48286473892601234,6.016810894012451,0.08025260348576498
0.48626477349594244,6.054274797439575,0.08031759207586507
0.4896647974614169,6.087076187133789,0.08044334955038315
0.4930648142981981,6.1222662925720215,0.08053632278236904
0.49646482556298244,6.157501697540283,0.0806276392520206
0.49986483758341177,6.19354510307312,0.08070738636187347
0.5032648351222866,6.229642152786255,0.08078551267943979
0.5066648200168958,6.265030145645142,0.08087188860042141
0.5100648089222716,6.301248550415039,0.08094662586967397
0.513464792843052,6.335298299789429,0.08104824248924766
0.516864762497877,6.3721842765808105,0.08111265149651582
0.5202647295320635,6.405895709991455,0.08121654692576277
0.5236646907055224,6.440087080001831,0.08131329346953077
0.5270646641514034,6.474190950393677,0.08141012030535709
0.5304646504626369,6.508479595184326,0.08150362042390542
0.5338646418792258,6.543692350387573,0.08158461817777936
0.5372646608880708,6.57819390296936,0.08167358226481473
0.5406646832454909,6.611428260803223,0.08177728955343841
0.5440647069689404,6.647783994674683,0.08184151401501198
0.5474647415066302,6.681550025939941,0.08193678703013443
0.5508647650763876,6.715296983718872,0.08203133329947286
0.5542647782450255,6.751696825027466,0.0820926639049393
0.5576647770722125,6.78595757484436,0.0821792312907295
0.5610647753921475,6.818908452987671,0.08228073147782469
0.5644647745206333,6.8571457862854,0.0823177444541996
0.5678647591969603,6.889870643615723,0.08242023523665919
0.5712647339250256,6.923568964004517,0.0825101529131895
0.5746647062433737,6.958026885986328,0.08259018190929464
0.5780646722745997,6.993978977203369,0.08265176005801295
0.5814646416322535,7.027279376983643,0.08274391986416779
0.5848646365025877,7.060880184173584,0.08283168971108112
0.5882646270613712,7.095470666885376,0.0829070620793075
0.5916646421355273,7.129180908203125,0.08299195233701166
0.5950646651760924,7.163779973983765,0.08306573726959093
0.5984646837494735,7.198090553283691,0.08314214433944017
0.6018647087087747,7.23252534866333,0.08321639810360397
0.6052647254056295,7.2669360637664795,0.08329022301758336
0.6086647317828894,7.301865816116333,0.08335742495287621
0.6120647278364614,7.3347814083099365,0.08344689415597621
0.6154647131211055,7.368633508682251,0.08352494562199639
0.6188646898909586,7.410068988800049,0.08351672444971049
0.6222646622246258,7.445896625518799,0.0835714882331272
0.6256646368586399,7.480975389480591,0.08363409906927662
0.6290646113397861,7.518340349197388,0.08367067492587525
0.6324646058300352,7.551128149032593,0.08375763109133076
0.6358646144225937,7.585782527923584,0.08382320638404138
0.6392646234637166,7.617767095565796,0.08391758574974342
0.6426646543149186,7.6508870124816895,0.0839987119488855
0.6460646657513388,7.685058116912842,0.08406763565385618
0.649464668501323,7.719400644302368,0.0841340796297039
0.6528646666539761,7.753035068511963,0.08420762461213531
0.6562646583533579,7.787148475646973,0.08427534936642313
0.6596646398159767,7.821483850479126,0.08434008845720076
0.6630646136983429,7.857831001281738,0.08438265134363242
0.6664646043428922,7.891259431838989,0.08445605040608561
0.6698645956584639,7.924898147583008,0.084526587368541
0.6732646115339708,7.959105491638184,0.08459048724021825
0.6766646251235363,7.992985963821411,0.084657301812654
0.6800646444407736,8.02749490737915,0.08471692007124598
0.6834646488102535,8.060938835144043,0.08478722674714854
0.686864642695532,8.097427368164062,0.08482504522313061
0.6902646309048976,8.134143114089966,0.08486015321137158
0.6936646142669303,8.16734766960144,0.08493144192315012
0.6970645959060321,8.205330610275269,0.08495265200321371
0.7004645814495519,8.240715742111206,0.0850004542530305
0.7038645800419316,8.274872541427612,0.08506047392489482
0.707264599796343,8.30872917175293,0.08512307781084268
0.710664608070359,8.343181133270264,0.08517909376753528
0.7140646308382026,8.377073764801025,0.08524034178122858
0.7174646386657323,8.411537408828735,0.08529530379460509
0.7208646361690088,8.446106195449829,0.08534875355431361
0.7242646229005207,8.480846405029297,0.08540004007984611
0.7276646010973384,8.514587163925171,0.08546093745805165
0.7310645748407792,8.548211336135864,0.0855225199861811
0.734464562839977,8.581937074661255,0.08558260873393407
0.7378645650274506,8.616399049758911,0.08563491091421725
0.7412645664001979,8.650038003921509,0.08569494909318831
0.7446645861172162,8.684380054473877,0.08574758145615612
0.7480645964852677,8.718766689300537,0.0857993593753661
0.751464606127884,8.752978563308716,0.08585244447849107
0.7548646067310394,8.787181854248047,0.08590519910158796
0.7582645970156078,8.823997974395752,0.08593209101088127
0.7616645767897404,8.868682146072388,0.08588249801319732
0.765064546157371,8.904913425445557,0.08591487750697487
0.7684645423591656,8.938674926757812,0.08597074495446484
0.7718645390593364,8.972248554229736,0.08602799336131417
0.7752645432703685,9.006596565246582,0.08607741422124456
0.7786645665671686,9.040966033935547,0.08612625726547661
0.7820645799031257,9.075002431869507,0.08617789204735404
0.7854645842720336,9.10872507095337,0.08623211021889175
0.7888645840848767,9.141959190368652,0.08629053878472472
0.7922645774646513,9.17620587348938,0.08633901509920916
0.7956645606281915,9.210132360458374,0.08639013311515455
0.7990645335852428,9.244313478469849,0.08643849383150805
0.8024645124759898,9.27817702293396,0.08648945913539309
0.8058645047555247,9.312868118286133,0.08653236516612776
0.8092645182634544,9.347234725952148,0.08657796043321457
0.8126645308248986,9.381295919418335,0.08662604162637756
0.8160645519572434,9.415990114212036,0.08666794910133936
0.8194645581559673,9.448986768722534,0.08672512494868861
0.8228645538672856,9.483457326889038,0.08676841425058839
0.82626454387373,9.51768445968628,0.08681360969398698
0.8296645290099665,9.552461624145508,0.08685347941234803
0.83306451239314,9.586780071258545,0.08689721743911624
0.836464499660767,9.620060920715332,0.08695002106063263
0.8398644999371611,9.654160261154175,0.08699508576800376
0.8432645213365065,9.687920570373535,0.0870428814120627
0.8466645280440529,9.722146272659302,0.08708617462638366
0.8500645240888921,9.756049394607544,0.08713204389460634
0.853464514401086,9.789976119995117,0.08717738469841248
0.856864499824857,9.827230453491211,0.08719287737069892
0.8602644925517631,9.860790729522705,0.08724092379084519
0.8636644993542747,9.895272731781006,0.08728051492511289
0.8670645031624981,9.929206609725952,0.08732465112702788
0.8704645230184915,9.963244199752808,0.08736757882940259
0.8738645299155813,9.997215270996094,0.08741079452903608
0.8772645261367907,10.031050682067871,0.08745489918668672
0.8806645166520612,10.066643238067627,0.08748343373506816
0.884064502296375,10.100014686584473,0.08753101156086929
0.8874644790097883,10.134162902832031,0.0875715623992765
0.8908644575799919,10.170441627502441,0.0875934880911127
0.8942644628159325,10.202877521514893,0.08764826010409217
0.8976644714220723,10.237297773361206,0.08768568535321042
0.9010644815365784,10.273239612579346,0.08770986714193307
0.9044645025612417,10.306901216506958,0.08775329107770062
0.907864512716114,10.340261936187744,0.08779898597528432
0.9112645125597375,10.37449336051941,0.08783701342251514
0.9146645016271854,10.40846300125122,0.0878769998526422
0.9180644821597165,10.443330764770508,0.08790916450302538
0.9214644582441047,10.477368116378784,0.08794808467248774
0.9248644485910505,10.513468503952026,0.08796948868429033
0.928264453127835,10.546918392181396,0.08801286011807702
0.9316644568555651,10.580098152160645,0.08805820545864243
0.9350644789321219,10.614478349685669,0.08809330502424666
0.9384644916581437,10.648837804794312,0.08812834873263155
0.9418645036572635,10.68321681022644,0.08816300561790244
0.945264506610705,10.717336893081665,0.0881995701022424
0.9486644992348483,10.752236366271973,0.08822950565062497
0.9520644813379929,10.786736965179443,0.08826251019296592
0.9554644530265859,10.820549011230469,0.08830092188805995
0.9588644307492823,10.85529112815857,0.08833152602070643
0.9622644117406052,10.889359712600708,0.08836740057609754
0.965664417993369,10.924529314041138,0.08839414406186037
0.9690644247414817,10.95974326133728,0.08842035818120422
0.9724644445767245,10.994014501571655,0.08845398961750554
0.9758644513614599,11.029903888702393,0.08847442926143802
0.9792644535505839,11.0644690990448,0.08850532680642799
0.982664449281777,11.098559617996216,0.08853981805786719
0.9860644347691773,11.132567405700684,0.08857475538519897
0.9894644129103763,11.166836500167847,0.08860740576756039
0.9928644193983736,11.202523708343506,0.08862863808615731
0.9962644263575307,11.235753059387207,0.08866912801409205
0.9996644404154114,11.269511938095093,0.08870521153947919
1.0030644475674522,11.303470373153687,0.08873951224305245
1.0064644500957234,11.338711023330688,0.08876356827727669
1.009864446191155,11.373517274856567,0.08879086581454113
1.0132644320578406,11.410704612731934,0.08879946212324624
1.0166644077027214,11.443847179412842,0.08883939043957804
1.0200643892757937,11.477398157119751,0.08887592599922302
1.0234643842158602,11.511325359344482,0.08890934382156511
1.0268644003634457,11.545664072036743,0.0889393969854433
1.0302644051762657,11.580629587173462,0.08896445546599398
1.0336644333269382,11.616079568862915,0.08898565365355211
1.037064442156326,11.651325702667236,0.08900827842439593
1.0404644404881442,11.685496091842651,0.08903896183016706
1.0438644330892655,11.720603466033936,0.08906234530622616
1.0472644207996324,11.754741668701172,0.08909293375524678
1.0506643995499754,11.78884506225586,0.08912360744428387
1.0540643723819478,11.825002193450928,0.08913861960767526
1.0574643574300668,11.85964059829712,0.08916495813388343
1.0608643459697,11.893637657165527,0.08919595304221867
1.064264360906049,11.927597045898438,0.08922705527447536
1.0676643791807092,11.96187686920166,0.08925559014318507
1.0710643987462691,11.99604058265686,0.08928482621964019
1.0744644174292177,12.03019642829895,0.08931395458362812
1.07786443093239,12.064554214477539,0.08934142213385274
1.0812644353732213,12.098799467086792,0.0893695641716073
1.0846644294900056,12.1325204372406,0.08940140963295998
1.088064413088188,12.16606330871582,0.08943438690711843
1.0914643862708073,12.200063943862915,0.08946382504985594
1.0948643538959133,12.234224557876587,0.0894919288685953
1.0982643329305366,12.268229007720947,0.08952101662263963
1.10166431573609,12.302791595458984,0.08954588128947248
1.1050643186717795,12.339070796966553,0.08955814719398882
1.1084643291610479,12.372935771942139,0.08958781889700668
1.1118643430520387,12.406811475753784,0.08961725139653472
1.1152643699213634,12.440901517868042,0.08964498017443374
1.1186643818570416,12.474839210510254,0.08967365133769009
1.122064383458353,12.509032249450684,0.0897003350125368
1.1254643742759605,12.545768976211548,0.08970867998685382
1.1288643565464747,12.579311847686768,0.0897397544647137
1.1322643343569652,12.613364696502686,0.08976703374563559
1.135664319164745,12.6471426486969,0.08979611843642472
1.1390643119841164,12.681132078170776,0.08982355084408393
1.1424643123896554,12.71506381034851,0.08985124490368887
1.1458643322802262,12.749101400375366,0.08987804679681104
1.1492643464847956,12.78345537185669,0.0899024804369364
1.1526643603067752,12.818864345550537,0.08991938203222098
1.1560643650408138,12.852718114852905,0.0899470722620796
1.1594643594371836,12.886306047439575,0.08997647232408869
1.1628643433040415,12.920331478118896,0.09000267100526015
1.1662643167465714,12.953987836837769,0.09003129626461585
1.1696643050980917,12.987986087799072,0.09005740360292468
