Distance,Time,Velocity
1.87798428223092e-09,2.8706037998199463,6.542122888392726e-10
2.1204744915215753e-09,2.8891565799713135,7.339423921228352e-10
0.0011549277087900681,2.9231321811676025,0.00039509937875226327
0.00346520956979133,2.9571142196655273,0.0011718213475647458
0.006863061328631837,2.991887092590332,0.0022938904832434364
0.01026115343061658,3.0286977291107178,0.0033879754100219982
0.013659623997726108,3.0639419555664062,0.00445818628284065
0.017058473392800644,3.10005259513855,0.005502639993770252
0.020457700745316706,3.1353840827941895,0.006524782994715348
0.023857302639640577,3.1741790771484375,0.007516054406442965
0.027257274357506467,3.2093191146850586,0.00849316424558214
0.03065761288034796,3.244154453277588,0.009450108902606162
0.03405831858881368,3.2800917625427246,0.010383343227694245
0.037459387890450134,3.31809401512146,0.011289429328927233
0.04086081795834701,3.35272216796875,0.01218735579963149
0.04426260575672191,3.3872580528259277,0.013067385202551789
0.04766474126010035,3.4217417240142822,0.013929964650920975
0.051067245401502724,3.4566996097564697,0.01477341139431566
0.054469420976018874,3.4936459064483643,0.015590996464605199
0.0578710613334447,3.5268285274505615,0.01640881060222056
0.06127244539536153,3.5620357990264893,0.017201524311492713
0.06467273306957136,3.5970993041992188,0.017979134741727323
0.06807241431398957,3.6306986808776855,0.018749122496040826
0.07147159838249885,3.6669235229492188,0.019490888734165896
0.07486981132788427,3.7019169330596924,0.020224605976234912
0.07826811916333686,3.7356481552124023,0.020951683860839048
0.08166601855090337,3.7705068588256836,0.021659161913403356
0.0850642574457227,3.8059465885162354,0.022350355021373374
0.08846304258829034,3.8396432399749756,0.02303939117762068
0.09186225565913182,3.8759331703186035,0.02370068100311975
0.09526190456110414,3.909626007080078,0.024365989071228562
0.09866199916817761,3.944148063659668,0.0250147807779386
0.10206254899120627,3.9782629013061523,0.025655053857224185
0.1054635639542675,4.0120861530303955,0.026286465427620267
0.10886501498022462,4.046666860580444,0.026902391210085745
0.11226671601446599,4.084261417388916,0.02748764208296895
0.11566835264488588,4.117588520050049,0.028091285003747763
0.11906979170267488,4.151827573776245,0.028678886487180484
0.12247085862383802,4.185467004776001,0.029260978161836555
0.1258713478100132,4.22170877456665,0.029815260722936443
0.12927134463585882,4.255171537399292,0.030379819826222062
0.13267077875227934,4.291555881500244,0.03091437753943454
0.13606979825792534,4.325459003448486,0.03145788646926101
0.13946860754836343,4.358898878097534,0.03199629343299547
0.1428672540152711,4.393441438674927,0.032518301657017246
0.14626603402848581,4.427769660949707,0.033033794715760664
0.14966505538607208,4.461111545562744,0.033548826084596965
0.15306447220988564,4.494908094406128,0.034052859145301095
0.15646435562998692,4.533220052719116,0.03451505856993121
0.15986466662343254,4.566917419433594,0.03500493920541693
0.16326534059303208,4.600935697555542,0.035485247203036176
0.16666626011213573,4.63532280921936,0.035955696500931326
0.170067291940856,4.669377088546753,0.036421837156395936
0.17346829591889062,4.703150033950806,0.0368834280570827
0.17686912498188012,4.738722562789917,0.0373242203227337
0.18026970940939607,4.776177644729614,0.037743510149443237
0.18366994936446004,4.810476064682007,0.03818124170972284
0.18706986658912195,4.845243692398071,0.03860896963399892
0.19046947060031663,4.879384279251099,0.0390355544264594
0.19386881842628648,4.915483236312866,0.03944043934360127
0.19726801675852648,4.951208829879761,0.03984239476388983
0.20066719828718985,4.984791994094849,0.04025588199565938
0.20406644368837443,5.018827199935913,0.04066018525024735
0.20746588000995114,5.05258584022522,0.04106132712446966
0.2108655644949011,5.08704686164856,0.04145146884425709
0.21426552221827905,5.1246161460876465,0.04181103835101066
0.2176657443250443,5.157033443450928,0.04220754949756329
0.22106619201244257,5.190989255905151,0.04258652467079617
0.22446680586858023,5.225483655929565,0.04295617796332953
0.22786746923358522,5.259344100952148,0.04332621423122557
0.2312681009906818,5.293657064437866,0.04368777542170465
0.23466861038576123,5.32813572883606,0.04404328686968809
0.23806893824471556,5.365479230880737,0.044370489195917885
0.24146907542889415,5.398657321929932,0.04472761670721729
0.24486899733981865,5.433047533035278,0.045070284375557046
0.24826873498501364,5.4674437046051025,0.04540855807548646
0.25166832026328606,5.502770662307739,0.04573483717704891
0.2550678141096641,5.54032039642334,0.04603845912491415
0.2584672945971088,5.573866128921509,0.046371277784369724
0.2618668417088167,5.607955455780029,0.04669559945218801
0.26526649056253815,5.641849040985107,0.0470176512408458
0.2686662863455474,5.675447940826416,0.04733834036480057
0.2720662502223394,5.710403203964233,0.047643964971417006
0.2754663809335897,5.7452545166015625,0.047946767221121095
0.27886665387930476,5.780881404876709,0.04823946978812866
0.28226702854058644,5.813944578170776,0.04855000331451306
0.28566744935358285,5.848873853683472,0.0488414447806353
0.2890678651551431,5.8825483322143555,0.049139904821883525
0.29246820116969235,5.916682004928589,0.04943111712376408
0.2958684275780388,5.950959205627441,0.04971777109449094
0.29926853473334997,5.986936807632446,0.04998692058212933
0.3026685158436345,6.021028757095337,0.05026857170993612
0.30606836899855827,6.054938554763794,0.0505485507788936
0.3094681138614137,6.089465141296387,0.05082024556848535
0.3128677922978221,6.123981714248657,0.05108894946075249
0.3162674594120584,6.158023357391357,0.051358600163873794
0.31966716515635224,6.19236421585083,0.05162279769301813
0.3230669294523014,6.229936599731445,0.05185717772251935
0.3264667892757506,6.262442350387573,0.05213090532570668
0.329866768135087,6.296684741973877,0.052387372347893785
0.33326684535520346,6.331275939941406,0.05263818044207495
0.3366670206567118,6.366755962371826,0.05287889509923861
0.3400672725771887,6.401400327682495,0.05312388776977234
0.343467539829833,6.437518835067749,0.0533540248393259
0.3468677949494126,6.471432209014893,0.053599849885812866
0.3502679944059414,6.505527973175049,0.05384159377228713
0.3536681346102353,6.5395262241363525,0.05408161424674809
0.3570681912502218,6.573870897293091,0.05431627679169225
0.36046817312765633,6.608304500579834,0.05454775473739561
0.3638680896693413,6.645191192626953,0.05475660204826978
0.3672679260880087,6.678025722503662,0.05499648269553476
0.3706677354966905,6.711934566497803,0.055225171196819335
0.3740675402608024,6.745779991149902,0.05545208126436954
0.37746735224464784,6.780237913131714,0.0556716972296183
0.38086721947699886,6.814857006072998,0.05588777858986513
0.3842671353163467,6.850086212158203,0.05609668599999688
0.3876671326949148,6.886073589324951,0.056297268344022766
0.39106718272503754,6.920313835144043,0.05651003582222621
0.39446730147555525,6.955427169799805,0.056713598150853625
0.3978674526528827,6.989148139953613,0.056926458659312854
0.4012676105267278,7.023565053939819,0.05713161442160197
0.40466775237031444,7.061365842819214,0.05730729173051214
0.4080678669370672,7.095496654510498,0.05751082507771528
0.4114679321550285,7.128385543823242,0.0577224575782894
0.4148679570496098,7.162604808807373,0.05792138029721738
0.4182679197611326,7.196831703186035,0.058118341099454296
0.42166786237440457,7.2312211990356445,0.058312123328579435
0.42506775987346807,7.268822431564331,0.05847821485191911
0.4284676506326777,7.303215265274048,0.05866835839688203
0.4318675428615171,7.33794093132019,0.058854050053496205
0.43526745303829234,7.372308969497681,0.05904085881901796
0.4386673831548941,7.4061806201934814,0.05922990616227156
0.4420673664731192,7.440797567367554,0.05941128789900896
0.44546738787629564,7.476748943328857,0.0595803592246821
0.4488674373345685,7.511108160018921,0.05976048111300767
0.4522675035932628,7.545078277587891,0.0599420558613276
0.4556675823844819,7.579361915588379,0.06011951764004251
0.4590676520088444,7.612853765487671,0.06030165114821919
0.4624677266331713,7.647407293319702,0.06047379312949034
0.4658677664685147,7.684735298156738,0.060622487098580716
0.46926777878055476,7.71754002571106,0.06080535730520147
0.4726677646417617,7.752162933349609,0.06097237231797037
0.47606772355209553,7.786806106567383,0.0611377395349013
0.4794676853591977,7.820352077484131,0.061310242890425755
0.48286763438836094,7.855058431625366,0.06147218872927545
0.48626759845907713,7.889453411102295,0.06163514417548693
0.489667581178129,7.925111770629883,0.06178683599047973
0.4930675553604139,7.959184408187866,0.061949507647188026
0.49646753943625077,7.9928367137908936,0.062114060028230327
0.4998675376881601,8.025975942611694,0.062281215550902914
0.5032675419405122,8.060420513153076,0.06243688416991087
0.5066675412776636,8.094692945480347,0.06259255844417919
0.5100675536739504,8.128871202468872,0.06274764859345225
0.5134675798780018,8.16255784034729,0.06290523018899129
0.5168676065466795,8.200343608856201,0.06302999376617258
0.5202676322081818,8.233369827270508,0.06319012058524993
0.5236676748799789,8.272000074386597,0.06330605297036473
0.5270677260634463,8.307055473327637,0.06344820108108822
0.5304677521035687,8.343148708343506,0.06358124140506788
0.5338677781097221,8.377976894378662,0.06372275608302634
0.5372677830529773,8.41223430633545,0.06386742968492312
0.540667781446981,8.446356296539307,0.06401195526981342
0.5440677623902533,8.480907678604126,0.06415206756263164
0.547467740598738,8.517945289611816,0.06427227717304199
0.5508676998768103,8.551644325256348,0.06441658222967514
0.5542676692051167,8.587374925613403,0.06454448233672817
0.5576676475954175,8.621609687805176,0.06468254395512822
0.5610676307008476,8.656453609466553,0.06481495263687123
0.5644676261890839,8.692043781280518,0.06494072514967546
0.5678676168765894,8.727721214294434,0.06506482080872664
0.5712676206562529,8.76192855834961,0.06519884484927328
0.5746676383214236,8.801828622817993,0.06528957367241241
0.5780676565120663,8.84226107597351,0.06537554722092646
0.5814676737579698,8.878933668136597,0.06548845790397725
0.5848677080500473,8.922770977020264,0.06554776644568348
0.5882677509008927,8.961409568786621,0.0656445558464241
0.5916677791207069,8.998630285263062,0.0657508710064101
0.5950678070994304,9.031436443328857,0.06588850077542006
0.5984678063208073,9.06530213356018,0.06601741425751834
0.6018678031703651,9.099047422409058,0.0661462431427811
0.6052677872405428,9.134136199951172,0.06626437070686315
0.6086677638513197,9.168639421463013,0.0663858328234045
0.6120677211131589,9.205263376235962,0.06649106017903354
0.6154676962652998,9.239436388015747,0.06661312123579403
0.6188676822486886,9.273538589477539,0.06673479344237623
0.6222676769099783,9.307708978652954,0.06685508521346518
0.6256676717601168,9.341452836990356,0.06697755506323312
0.6290676850282106,9.376062154769897,0.06709295167248695
0.6324676988700461,9.414546728134155,0.06717983532653761
0.6358677119691858,9.447747230529785,0.06730363296706546
0.6392677397545518,9.481996536254883,0.06741910707415678
0.6426677779328798,9.516732454299927,0.06753029792725805
0.6460678069867811,9.551614761352539,0.06763964241950812
0.6494678283456883,9.585888147354126,0.06775249391210066
0.6528678234754833,9.622671127319336,0.0678468394936571
0.6562678239164643,9.65686583518982,0.06795867677119534
0.6596677999013668,9.691212892532349,0.0680686522127359
0.663067767947841,9.724788665771484,0.06818325731659883
0.6664677449238736,9.758956670761108,0.06829293001378756
0.6698677326139885,9.792797565460205,0.06840412335047677
0.6732677308488504,9.830512285232544,0.06848755296916086
0.6766677348335678,9.863425016403198,0.06860372879686795
0.6800677437209165,9.898438453674316,0.06870454838949615
0.6834677615716054,9.932440042495728,0.06881166749030485
0.6868677896360362,9.967315196990967,0.06891201653213443
0.6902678249887204,10.002565860748291,0.06900907573100264
0.6936678320765313,10.03870415687561,0.06909934003797005
0.6970678358011377,10.07401728630066,0.0691946237524387
0.7004678319223906,10.108023405075073,0.06929820043458716
0.7038678085620093,10.143240213394165,0.06939279695186068
0.7072677908846828,10.177538633346558,0.06949300969168815
0.7106677735755486,10.215965986251831,0.06956442244736641
0.7140677653394896,10.249465942382812,0.06966877780302004
0.7174677674244566,10.283285140991211,0.06977028815086417
0.7208677800311089,10.318502426147461,0.06986166696093453
0.7242678030568099,10.353042125701904,0.06995700338732147
0.7276678316603015,10.391016006469727,0.0700285545905459
0.731067848878627,10.425127506256104,0.07012555466970684
0.7344678623359587,10.46015191078186,0.07021579309750768
0.7378678626843551,10.495453119277954,0.07030357377606175
0.7412678418690375,10.528666973114014,0.07040471920727835
0.7446678324057863,10.565638303756714,0.07048015567038789
0.74806779965407,10.599385738372803,0.07057652378343501
0.7514677862473695,10.633601903915405,0.07066916676377279
0.7548677833672173,10.667511940002441,0.0707632471013709
0.7582677862545675,10.701525688171387,0.07085604504904344
0.7616677940593132,10.735839366912842,0.07094627332136914
0.7650678108474543,10.770930290222168,0.0710308014472976
0.7684678378722833,10.808007001876831,0.07110171539848535
0.7718678721930474,10.842719316482544,0.07118766516621837
0.7752678782914948,10.876586198806763,0.0712786037935825
0.7786678810297902,10.910494565963745,0.0713687061866942
0.7820678761985328,10.945197582244873,0.07145306152053307
0.7854678519131565,10.981501340866089,0.07152645412792057
0.7888678333250667,11.017089366912842,0.07160401509442595
0.7922678151284281,11.050657272338867,0.07169418031917164
0.7956678060192992,11.085476160049438,0.07177569953077692
0.7990678072406936,11.119861602783203,0.07185951010763425
0.8024678189894201,11.157523155212402,0.07192168080910818
0.8058678411651639,11.191048860549927,0.07201003687920308
0.809267868912933,11.225250959396362,0.07209352127985309
0.812667891374048,11.259750604629517,0.07217459070895536
0.8160679156123818,11.293797731399536,0.0722580601336176
0.819467915205324,11.32793927192688,0.0723404226959572
0.8228679067571885,11.365010261535645,0.07240362197842858
0.8262678950066178,11.3990957736969,0.07248538931598489
0.8296678673571756,11.433189630508423,0.0725666147566802
0.8330678526767009,11.467550277709961,0.0726456682118042
0.8364678486883875,11.502310752868652,0.07272172232694846
0.8398678504507417,11.536856412887573,0.07279867412690891
0.8432678571206821,11.57121467590332,0.07287634710267368
0.8466678727682072,11.608017206192017,0.07293819932628741
0.8500678986520581,11.641786336898804,0.0730186823612933
0.8534679212326475,11.676076412200928,0.07309543815085137
0.8568679235579829,11.710325479507446,0.07317199893866862
0.8602679117802029,11.745343685150146,0.07324331538019235
0.8636679086129766,11.781785726547241,0.0733053484979719
0.867067883323162,11.816842079162598,0.07337560047892312
0.8704678758797527,11.850607633590698,0.07345343823656776
0.873867879223439,11.885800123214722,0.07352200694647776
0.8772678911793182,11.919998168945312,0.07359631090085472
0.8806679076493745,11.958460092544556,0.07364392244770902
0.8840679305023631,11.991647005081177,0.07372364531142055
0.887467950091537,12.02607798576355,0.0737952931240027
0.8908679442564602,12.060709476470947,0.07386530170504818
0.8942679379296375,12.094313621520996,0.07394118971235784
0.8976679243965969,12.128687620162964,0.07401195846649529
0.9010679072954733,12.166301012039185,0.07406260180508603
0.9044678967383636,12.197871446609497,0.07414964985466937
0.9078678964937962,12.233031034469604,0.07421446851035142
0.9112679067784413,12.268535137176514,0.07427683065577141
0.9146679274950958,12.30430269241333,0.07433724204940667
0.9180679537952896,12.340692043304443,0.0743935551242765
0.9214679598323157,12.3775475025177,0.07444673184610126
0.924867957781202,12.409878015518188,0.07452675655833858
0.9282679550697751,12.444742202758789,0.07459117593163109
0.9316679309674601,12.479294300079346,0.07465710067928572
0.9350679192690928,12.514862298965454,0.07471659670968897
0.9384679093834407,12.55081558227539,0.074773460197182
0.9418679059613521,12.584571838378906,0.0748430632410518
0.9452679128184317,12.61896800994873,0.07490849585110188
0.9486679299505111,12.653516292572021,0.07497267226086447
0.9520679578079365,12.6876060962677,0.07503921154109643
0.9554679837265568,12.72221040725708,0.07510235667707028
0.9588679993973283,12.758280277252197,0.07515652412080757
0.9622679938707484,12.791594982147217,0.07522658395718065
0.9656679892403601,12.825835704803467,0.0752908435337826
0.9690679659204193,12.860820293426514,0.07535040097059238
0.9724679408068001,12.894389390945435,0.07541791327394506
0.9758679216936801,12.929490566253662,0.07547613084159117
0.9792679130468334,12.967281818389893,0.07551836435435981
0.9826679152179351,13.001488208770752,0.075581187279394
0.9860679259982197,13.036673069000244,0.07563800371300093
0.9894679412890347,13.070937156677246,0.07569984687621026
0.9928679629620869,13.105521202087402,0.07575951750808249
0.9962679947956469,13.14242148399353,0.07580551240188313
0.9996680247085857,13.177972555160522,0.07585901552944983
1.0030680297283132,13.21178150177002,0.07592223876802151
1.0064680300100945,13.246928691864014,0.07597746265730608
1.0098680203339376,13.281517267227173,0.07603559141739318
1.0132679895967436,13.31975269317627,0.07607258279771534
1.016667973549588,13.353524684906006,0.07613480317288561
1.0200679681922733,13.387349128723145,0.0761964118799048
1.023467968576658,13.421328783035278,0.07625682859884439
1.0268679738598487,13.456026077270508,0.07631287037964363
1.0302679881074315,13.493247032165527,0.07635434122353603
1.033668012576627,13.526842832565308,0.07641605845290925
1.0370680337404399,13.560922384262085,0.0764747414928053
1.0404680346248283,13.595881938934326,0.07652817517084018
1.0438680213977476,13.629884481430054,0.0765867108279574
1.0472680167690172,13.664130926132202,0.07664358768446454
1.0506679900067002,13.701142311096191,0.07668470016224793
1.0540679810880023,13.734936952590942,0.07674356167242283
1.0574679829543496,13.769619941711426,0.07679718012775573
1.0608679934340242,13.803154945373535,0.0768569213076609
1.064268008436506,13.837587833404541,0.07691138233408835
1.0676680298346466,13.871967792510986,0.07696586712168155
1.0710680541537148,13.906635522842407,0.07701848893604978
1.0744680585860822,13.944217205047607,0.0770547419612153
1.0778680625481307,13.977188348770142,0.07711622936260802
1.0812680419327778,14.012457370758057,0.07716476941362374
1.0846680233948818,14.047152757644653,0.07721621898107363
1.0880680114330332,14.080973386764526,0.07727221560235087
1.0914680098111627,14.118935346603394,0.0773052629689772
1.0948680187397617,14.151748657226562,0.07736627078807462
1.0982680381214618,14.18606448173523,0.07741879642063508
1.1016680631173985,14.220820665359497,0.07746866999040021
1.1050680678691251,14.254886388778687,0.07752205368252
1.108468064548047,14.289003849029541,0.07757490138987752
1.111868060574786,14.327877521514893,0.0776017284419966
1.1152680423977759,14.360973596572876,0.07765964019764823
1.1186680403632656,14.394734382629395,0.07771369798342369
1.122068048848546,14.430176734924316,0.07775844117923279
1.1254680677726006,14.465458631515503,0.07780382886171157
1.1288680806818567,14.502739191055298,0.07783826667572542
1.1322680903250228,14.537981748580933,0.07788344420198111
1.1356680747289556,14.572121858596802,0.07793429712907389
1.139068070411826,14.606332778930664,0.0779845350405071
1.14246805179765,14.64151906967163,0.07802933878385288
1.1458680493541333,14.678837299346924,0.07806258942628339
1.1492680574421852,14.713035821914673,0.07811223131329438
1.152668075975151,14.746800899505615,0.07816394103576689
1.1560681001345463,14.78176212310791,0.07820908566288574
1.15946810406961,14.815783500671387,0.07825897995992369
1.1628680999325154,14.852104902267456,0.07829651807502258
1.1662680951779378,14.887274026870728,0.07833993604691408
