Distance,Time,Velocity
2.1221462858221417e-06,0.11590433120727539,1.8309464915741932e-05
3.999987988267154e-06,0.12606000900268555,3.173082423135429e-05
0.0011497117628685028,0.1606588363647461,0.007156231109867467
0.0034588877984500417,0.19528484344482422,0.017712013576861717
0.006855566740780192,0.23193955421447754,0.029557557631764524
0.010252549087747314,0.26566052436828613,0.03859267052237753
0.013649916431358804,0.2998321056365967,0.04552519951916961
0.01704767130137858,0.3340322971343994,0.05103599696085487
0.02044581329547745,0.36900877952575684,0.055407389823499666
0.023844338663149417,0.40699052810668945,0.05858696214399075
0.027243244509706877,0.4399399757385254,0.06192491251556251
0.030642529518851658,0.47496628761291504,0.06451516732451654
0.03404219151367951,0.5092685222625732,0.06684526929415781
0.0374422252279293,0.5435712337493896,0.06888191078410125
0.040842628543236045,0.5791025161743164,0.07052745826948187
0.04424340145411069,0.6166286468505859,0.0717504800986504
0.04764454147395878,0.6517796516418457,0.07309915452859145
0.051046046037208,0.6881964206695557,0.07417365813606616
0.05444791282706614,0.7241308689117432,0.07519070815043825
0.05785013943350879,0.7577893733978271,0.07634065805662651
0.06125272327200377,0.792750358581543,0.07726609342896092
0.06465566198306737,0.8268778324127197,0.07819252064650316
0.06805895312875293,0.8618500232696533,0.07896844148191062
0.0714625940577742,0.896629810333252,0.07970133630869754
0.07486658235993118,0.9340713024139404,0.08015082164118721
0.07827085164818758,0.9683256149291992,0.0808311279196208
0.08167482359201828,1.0024101734161377,0.08147844640650112
0.08507785876341276,1.0365021228790283,0.08208170237712317
0.08847996582832969,1.0717411041259766,0.0825572197312397
0.0918807698267453,1.1069142818450928,0.08300621948213652
0.09528037151263448,1.141890287399292,0.08344091596543828
0.09867877921703233,1.1787395477294922,0.08371550730363551
0.10207606544484177,1.2136034965515137,0.08410989728926589
0.10547281558773867,1.2478384971618652,0.08452441227581162
0.10886930234011766,1.2844476699829102,0.08475962461091636
0.11226607886774889,1.3201727867126465,0.08503892823552431
0.11566323107601233,1.3577005863189697,0.08519052892921056
0.11906077985823066,1.3923366069793701,0.08551149144640334
0.12245871321972203,1.4284875392913818,0.0857261333063284
0.12585702806134985,1.4674725532531738,0.08576448519077448
0.12925572178471656,1.503119707107544,0.08599163537909006
0.13265479147831294,1.5380759239196777,0.08624723228242959
0.1360542337080567,1.5741252899169922,0.08643164211867227
0.1394540441800139,1.6095538139343262,0.08664143004895142
0.14285421373790907,1.6469638347625732,0.08673791781135436
0.14625473888319201,1.6827776432037354,0.08691269430270462
0.1496556070708349,1.7179410457611084,0.08711335434943997
0.15305679191693386,1.7548913955688477,0.08721724449923611
0.156458365648835,1.7890021800994873,0.08745565957898066
0.15986051945167484,1.8234846591949463,0.08766759766558824
0.16326305408347783,1.8589911460876465,0.08782347050284467
0.16666598935722277,1.8965792655944824,0.08787715461234959
0.17006926245337117,1.9312796592712402,0.08806040162901423
0.17347249502694395,1.965848445892334,0.08824306644259225
0.17687507530878713,1.999884843826294,0.0884426300118259
0.180276919374673,2.037832498550415,0.08846503306965149
0.1836777223776219,2.072901964187622,0.08860897695642152
0.18707739971599738,2.1056106090545654,0.08884710160156178
0.19047614374612118,2.139911651611328,0.0890112185718952
0.1938742109488322,2.1743712425231934,0.08916334393930626
0.19727174811118398,2.20855450630188,0.08932165701516065
0.200669274232077,2.243745803833008,0.08943494128847937
0.2040669747534597,2.280013084411621,0.08950254546724283
0.20746517557562116,2.313478946685791,0.08967670783122038
0.21086389126111676,2.347090005874634,0.08984056458565132
0.2142631081544603,2.3814737796783447,0.08997080294682056
0.21766282473725673,2.4165732860565186,0.0900708561139685
0.22106303531791324,2.4543168544769287,0.09007110671740338
0.22446374169058245,2.4887120723724365,0.09019273229008204
0.22786494312575062,2.522580862045288,0.09033008477714351
0.23126663741371473,2.5571000576019287,0.09044098087839342
0.23466870956574248,2.590740203857422,0.09057979229887196
0.2380708677019281,2.6248655319213867,0.09069830999215475
0.24147281232308324,2.6601667404174805,0.09077356266967951
0.24487427703161715,2.695317029953003,0.09085175298873355
0.24827513223513603,2.729809045791626,0.09094963349831597
0.2516752831242619,2.764232873916626,0.09104706245956211
0.2550747407192113,2.79891037940979,0.09113358633976672
0.258473619163342,2.833244800567627,0.09122883384858169
0.26187209497818453,2.867335557937622,0.09132942053232873
0.2652703976742074,2.9032793045043945,0.0913692310838452
0.26866876091712516,2.937596559524536,0.09145869947526439
0.27206739267189045,2.971717357635498,0.09155224401568456
0.2754664892377528,3.0066535472869873,0.0916189660382774
0.278866117351783,3.0409953594207764,0.09170225021484384
0.28226624680643364,3.078888177871704,0.09167797935472652
0.2856668777970285,3.1133902072906494,0.09175428031092286
0.2890679196636026,3.147531270980835,0.09183957037336223
0.29246920637423474,3.1813743114471436,0.09193171810116124
0.29587054054384004,3.21587872505188,0.09200301561094065
0.2992717608145736,3.2505359649658203,0.09206843549498166
0.3026726801653157,3.2874927520751953,0.09206793839294602
0.3060732160106645,3.3203928470611572,0.09217982031299896
0.30947331984039217,3.3549447059631348,0.09224394050081634
0.31287300138388174,3.389463186264038,0.09230753785785742
0.31627232718558035,3.423675298690796,0.09237801473361741
0.3196713909643994,3.4585139751434326,0.09243027301953922
0.3230703503361627,3.494572639465332,0.09244917295111436
0.3264693373367592,3.528134346008301,0.0925331365870814
0.32986850236090204,3.5619723796844482,0.09260838299653654
0.3332679280572631,3.5964438915252686,0.09266596062921549
0.336667702607216,3.6306846141815186,0.09272843509793882
0.34006782841312155,3.6653785705566406,0.09277836432635589
0.3434682527065187,3.702838659286499,0.09275809299579413
0.34686892563105015,3.7365400791168213,0.09283158170031915
0.3502697176134064,3.772137403488159,0.09285709404156542
0.3536705319429429,3.8064017295837402,0.09291466247353233
0.3570712370634935,3.841028928756714,0.09296239202735511
0.36047177423982907,3.878403663635254,0.09294333584193154
0.3638720581879399,3.9141578674316406,0.09296305118799472
0.36727208610319884,3.946711540222168,0.09305774753493243
0.370671865612778,3.981003761291504,0.09311015207193019
0.3740714256943384,4.015109300613403,0.09316593838110213
0.3774708492153684,4.049030065536499,0.09322500527428246
0.3808702137681991,4.086739778518677,0.09319659053658987
0.38426961082782435,4.119996547698975,0.09326940117035769
0.3876691063555694,4.155696868896484,0.09328618486519016
0.3910687755785816,4.189049243927002,0.0933550199118634
0.3944686631000318,4.223446369171143,0.09339970929415327
0.3978687778698617,4.258667945861816,0.09342563987795154
0.4012690623412826,4.295055866241455,0.0934258074487929
0.40466947802672276,4.3290791511535645,0.09347703377492901
0.4080699881506058,4.363642454147339,0.09351590842709022
0.41147048833716904,4.397974729537964,0.09355908426977176
0.4148709389522359,4.43176531791687,0.09361302081474929
0.41827126310336354,4.46632194519043,0.09365004767598091
0.4216714298278908,4.503237247467041,0.09363740053115578
0.42507143996012836,4.5361409187316895,0.09370772371837577
0.42847127998240403,4.570674180984497,0.09374356233156697
0.43187098299403376,4.605213642120361,0.09377870747277406
0.43527060959724906,4.638757705688477,0.09383344361001647
0.4386701954044301,4.6747167110443115,0.09383888319222515
0.44206981667545353,4.710541725158691,0.09384691665385064
0.44546952473910983,4.745176076889038,0.09387839724404114
0.448869332893597,4.779294013977051,0.09391958970945878
0.4522692712844395,4.813905715942383,0.09395058772892939
0.45566933810963356,4.848935842514038,0.09397305984427744
0.45906951799385254,4.882792711257935,0.09401781831438515
0.4624697804971591,4.919253349304199,0.09401218999272987
0.4658701073501265,4.9534900188446045,0.09404886364519013
0.46927043492432097,4.988007545471191,0.09407973637698085
0.4726707152076551,5.022454500198364,0.09411149771271929
0.4760709314901669,5.056853532791138,0.09414370584457067
0.47947103821607145,5.090505361557007,0.0941892806629749
0.4828710380035873,5.127964973449707,0.09416426213979152
0.48627092374943076,5.162264585494995,0.09419721048699475
0.4896707432293121,5.196645498275757,0.09422823692549058
0.493070498705619,5.231251955032349,0.09425477934231329
0.4964702488781727,5.266063690185547,0.09427729668432473
0.49987000635110795,5.302905321121216,0.09426342279960193
0.5032698251889252,5.336866140365601,0.0943006273630181
0.5066697115623978,5.371044397354126,0.09433355490637771
0.510069694646495,5.405304670333862,0.09436465208814773
0.513469746097814,5.439256429672241,0.09440072420500953
0.5168698840133331,5.474551439285278,0.09441319343613881
0.5202700567527563,5.510922908782959,0.09440706490805431
0.5236702617052166,5.544567823410034,0.09444744448687212
0.5270704349741748,5.57831883430481,0.09448553419587037
0.5304705920256347,5.612020254135132,0.09452399813325077
0.533870688917714,5.646177768707275,0.09455435354454786
0.5372707393501154,5.681623220443726,0.09456289488132502
0.5406706990269281,5.7186784744262695,0.0945446927021319
0.5440706231060726,5.7518486976623535,0.09459056586922947
0.5474704963629912,5.786942481994629,0.09460444752412511
0.550870360334652,5.821364164352417,0.09462908431462683
0.5542702083966066,5.855534791946411,0.09465748699144254
0.5576700698751978,5.890006065368652,0.09468072930418851
0.5610699869288817,5.928179025650024,0.0946445754254799
0.5644699493417672,5.961363077163696,0.09468806748310511
0.5678699573225362,5.995372772216797,0.0947180398780384
0.5712700236355368,6.029840707778931,0.09474048342579881
0.5746701172892213,6.064306974411011,0.09476270243477171
0.5780702431727665,6.100024223327637,0.09476523731858595
0.5814703787955481,6.134853363037109,0.09478146328630199
0.5848704903356364,6.1686437129974365,0.0948134659006654
0.5882705682337145,6.202867269515991,0.09483849043889298
0.5916706185705578,6.237517356872559,0.094856749042734
0.5950706347061901,6.271487236022949,0.09488509061903999
0.5984706085532667,6.3053812980651855,0.09491426136860402
0.601870561133843,6.34347677230835,0.09488023409516265
0.6052704734699552,6.376290559768677,0.09492517127260801
0.6086703659610463,6.410736560821533,0.0949454653433841
0.6120702680357348,6.4451000690460205,0.09496675947287986
0.6154701813425991,6.47957444190979,0.09498620424232605
0.6188701199254689,6.514287948608398,0.09500195950927742
0.6222700870525198,6.55232048034668,0.0949694217367701
0.6256700984131313,6.584994554519653,0.09501452024492542
0.6290701307377663,6.618856906890869,0.09504211068271375
0.6324701993109912,6.653217554092407,0.09506230544377098
0.6358702775435409,6.687716722488403,0.09508032471012658
0.6392703657548007,6.722775220870972,0.09509024840964113
0.6426704415507386,6.7598021030426025,0.09507237516043127
0.6460705025558826,6.796369314193726,0.09506112347464861
0.6494705174165087,6.829853773117065,0.0950928876358795
0.6528705168717952,6.865224599838257,0.09509820216037458
0.6562704712740636,6.901980400085449,0.09508437190953754
0.6596704231958852,6.935364246368408,0.09511691091658395
0.663070364405271,6.9689414501190186,0.09514649665968235
0.6664703218639659,7.003870725631714,0.0951574276528146
0.6698702958744179,7.038116693496704,0.09517749208298654
0.6732702613127473,7.074548244476318,0.09516795108979922
0.6766702399464564,7.112422227859497,0.09513921112499843
0.6800702325958952,7.1479105949401855,0.09514252081962227
0.6834702258841125,7.1821370124816895,0.09516251565464758
0.6868702183582202,7.219304084777832,0.09514354988959549
0.6902702253173457,7.2546586990356445,0.09514854577639921
0.6936702448912624,7.290025234222412,0.09515333933754928
0.6970702604190849,7.327635288238525,0.09512895129182285
0.7004702809010961,7.37305760383606,0.09500404290028264
0.7038703156223126,7.4089765548706055,0.09500236779121586
0.7072703602055734,7.445853233337402,0.09498849064589454
0.7106703978775201,7.483258485794067,0.09496804089109438
0.7140704443615664,7.518010139465332,0.09498130903190694
0.7174704826658046,7.553170680999756,0.09498931150472009
0.7208705039288046,7.587167501449585,0.09501180826587484
0.7242705124192927,7.623803615570068,0.09500120267265509
0.7276704985787193,7.663814306259155,0.09494886873556156
0.7310704782471991,7.699224948883057,0.09495377562039632
0.7344704386504644,7.736651182174683,0.09493389599141953
0.7378704077661994,7.7738356590271,0.09491716060518629
0.7412703815455843,7.807945251464844,0.09493795840929022
0.7446703603413488,7.842339038848877,0.09495513476941618
0.7480703480964583,7.8783159255981445,0.09495307819096664
0.7514703459120179,7.919623613357544,0.0948871288080609
0.7548703564685127,7.967240571975708,0.09474677583148726
0.7582703630667266,8.003219366073608,0.09474566775978992
0.7616703746926872,8.039129495620728,0.0947453794726908
0.7650704006192253,8.081352233886719,0.09467108702565058
0.7684704292066707,8.114995241165161,0.09469758223743983
0.7718704679824144,8.150074243545532,0.09470717013329036
0.7752705034062842,8.188410520553589,0.09467899801314199
0.7786705130114359,8.222336530685425,0.09470185392016846
0.782070525369124,8.25788426399231,0.09470591986609275
0.7854705103815114,8.292616844177246,0.09471925752038554
0.7888704967586806,8.32766342163086,0.09472891215915533
0.792270464353229,8.363677024841309,0.09472752976951085
0.7956704496018527,8.397727012634277,0.09474831087087926
0.7990704406542013,8.433852910995483,0.0947455983744307
0.8024704366517273,8.46967077255249,0.09474635534267505
0.8058704416571326,8.504220485687256,0.09476123567273755
0.8092704569231728,8.5419020652771,0.09474124741055785
0.8126704826550564,8.578899621963501,0.09472898838616507
0.8160705109592878,8.618641376495361,0.09468667685661733
0.8194705204311672,8.65220046043396,0.09471238261047708
0.8228705157822643,8.687005043029785,0.09472430506328681
0.8262705106484609,8.723263502120972,0.09472034295966891
0.8296704836356372,8.763806104660034,0.09467010950806765
0.8330704760243626,8.797352313995361,0.09469559093354299
0.8364704770516754,8.832937002182007,0.09469901991206793
0.8398704826365723,8.872952699661255,0.0946551290269626
0.8432704946459679,8.90626335144043,0.09468286096767888
0.8466705111245431,8.942903518676758,0.09467512529418647
0.8500705195690826,8.978100538253784,0.0946826687835709
0.8534705205115666,9.01621389389038,0.09465952455829606
0.8568705023428578,9.04993486404419,0.09468250492578062
0.8602704941458492,9.085069179534912,0.0946905826632229
0.8636704948990536,9.119182586669922,0.09470920081823284
0.8670705002144964,9.158327341079712,0.09467563976723657
0.8704705119705246,9.192522048950195,0.09469332870079263
0.8738705282072193,9.228687763214111,0.09469065923873808
0.8772705364189609,9.264132738113403,0.09469537637449837
0.8806705371286727,9.301079988479614,0.09468476114811158
0.884070518728269,9.33708381652832,0.09468379379472903
0.8874705102848144,9.37465524673462,0.09466700235125321
0.8908705107905663,9.408560514450073,0.09468722759686021
0.8942705158399866,9.444682598114014,0.09468507877846116
0.8976705273110788,9.483255386352539,0.09465847862780609
0.9010705432393527,9.517250537872314,0.09467761089756883
0.9044705511349814,9.5538330078125,0.09467096090075727
0.9078705514972227,9.588861227035522,0.09467970492027848
0.9112705327283657,9.629849195480347,0.0946297822769706
0.9146705238943046,9.661730527877808,0.0946694302076764
0.9180705239961913,9.697752237319946,0.09466838309842278
0.9214705286241559,9.73350477218628,0.09466996217614028
0.9248705396632052,9.767803192138672,0.09468562392898743
0.9282705609011994,9.804290056228638,0.0946800385930516
0.931670580248797,9.838453531265259,0.094696852232729
0.9350705747622282,9.87434983253479,0.09469692593645848
0.9384705612427178,9.911720514297485,0.09468291200190625
0.9418705520463353,9.948249578475952,0.0946770127364082
0.9452705248245029,9.983355522155762,0.09468465013859241
0.9486705127394225,10.019278526306152,0.09468451348554062
0.9520705112204434,10.056044340133667,0.0946764432432672
0.9554705201936395,10.090147972106934,0.0946934101298543
0.9588705348561338,10.124929666519165,0.09470392056419909
0.9622705543796712,10.159007787704468,0.09472091905907537
0.9656705828328123,10.197806358337402,0.09469395170887028
0.9690706094250477,10.231602191925049,0.09471347607609827
0.9724706093662533,10.265827417373657,0.09472890687023101
0.9758706059194718,10.30005931854248,0.09474417338186392
0.9792705990539804,10.334338188171387,0.09475890775229776
0.982670570576368,10.368794918060303,0.09477191692399649
0.986070554786085,10.403206825256348,0.09478524952442123
0.9894705435792016,10.440039873123169,0.0947765100137686
0.9928705373207559,10.474372148513794,0.0947904583914974
0.9962705400946692,10.508611917495728,0.09480515104340129
0.9996705531523575,10.543305397033691,0.09481566885405882
1.0030705766935362,10.578522682189941,0.0948214232581182
1.0064706106143209,10.615179538726807,0.09481428052558759
1.0098706295426145,10.648313522338867,0.09483855142169027
1.0132706477629891,10.682395696640015,0.0948542514748539
1.016670641291271,10.716805934906006,0.09486694519491529
1.02007062678289,10.752254962921143,0.09487039047163369
1.0234706116620929,10.789625406265259,0.09485691793042136
1.026870582403339,10.823598623275757,0.0948733058333382
1.0302705693357819,10.857999563217163,0.09488585474123178
1.0336705668361348,10.893052339553833,0.09489264667193115
1.0370705748235391,10.927294969558716,0.09490643180335233
1.0404705884794465,10.961661338806152,0.09491905983229047
1.0438706069823724,10.999233484268188,0.0949039411223867
1.047270634401826,11.032917022705078,0.09492237023505264
1.0506706599519733,11.068100929260254,0.0949278170362868
1.0540706588419073,11.101188659667969,0.09495115263390488
1.0574706543398003,11.135942220687866,0.09496014197840193
1.0608706464213502,11.174266338348389,0.09493872924619694
1.064270616894711,11.207061290740967,0.09496428986017846
1.06767060006511,11.242273569107056,0.0949692776556328
1.0710705878316686,11.275794506072998,0.09498848061259042
1.0744705805622656,11.310590982437134,0.09499685579919588
1.0778705823457582,11.344778776168823,0.09501027773322164
1.081270594435987,11.37943696975708,0.0950196918625816
1.084670617027064,11.415299415588379,0.09501902469118517
1.08807065001247,11.449761629104614,0.09502998274188162
1.0914706680374762,11.483923435211182,0.09504335989309082
1.094870685374337,11.518497943878174,0.0950532517962758
1.0982706780459615,11.553595304489136,0.09505878032781966
1.1016706626944426,11.590657472610474,0.09504815971809767
1.105070651669308,11.624537229537964,0.0950636253167414
1.1084706226291452,11.659038066864014,0.09507393459667259
1.1118706087157186,11.69309139251709,0.09508782334731876
1.1152706053625239,11.727674722671509,0.09509733444486858
1.1186706125012,11.762647151947021,0.09510364444758773
1.1220706253008754,11.798830509185791,0.09510015627627715
1.1254706429403272,11.83314323425293,0.09511172312040236
1.1288706694834136,11.867831945419312,0.0951202102182724
1.132270701895874,11.901089429855347,0.09514008852462143
1.1356707085802542,11.93561863899231,0.09514971472615144
1.1390707161292097,11.97377324104309,0.09513047334358739
1.142470703642381,12.006511211395264,0.09515426117772438
1.1458706857223,12.0404953956604,0.0951680680958768
1.1492706651991496,12.075847148895264,0.09517101790281342
1.1526706518206242,12.11107325553894,0.09517493846331546
1.156070643409568,12.145286798477173,0.09518677183930485
1.1594706440452216,12.179566621780396,0.09519802141167906
1.1628706549898522,12.214744806289673,0.09520220630324273
1.1662706764384303,12.24984622001648,0.09520696468276656
1.1696707082833975,12.285057306289673,0.09521084673203375
