Distance,Time,Velocity
0.0,0.026481151580810547,0.0
2.124193744479394e-06,0.07525157928466797,2.822789587503295e-05
0.0011515031613697094,0.1164705753326416,0.00988664439993535
0.0034613086172474187,0.15244054794311523,0.022705957594294675
0.006859436799627093,0.1966564655303955,0.03488030144916282
0.01025886363553975,0.22874760627746582,0.044847960608147185
0.013659488415368721,0.2844421863555908,0.04802202018758403
0.01706131487925087,0.32396841049194336,0.052663513869588105
0.020464149055178064,0.3475966453552246,0.05887326396451505
0.023867613188638788,0.3894050121307373,0.06129251664748878
0.02727112257536878,0.4285166263580322,0.06364075720269331
0.030674176603039744,0.46832752227783203,0.06549727518435806
0.03407660554994263,0.5060837268829346,0.0673339286363284
0.03747838366487511,0.5393879413604736,0.06948316933141867
0.040879510227297855,0.5853867530822754,0.0698333366992886
0.044279990413090116,0.6205205917358398,0.07135942143228735
0.04767982465888836,0.6457431316375732,0.07383713790028962
0.05107901869364837,0.6724503040313721,0.07595954435209143
0.054477579769900225,0.7026495933532715,0.07753164633585792
0.05787551202331832,0.7335813045501709,0.07889447517859981
0.061272819338393104,0.7604835033416748,0.08057087243727372
0.06466993785667154,0.8235247135162354,0.07852822968790797
0.06806685721379964,0.8702383041381836,0.0782163424548495
0.07146455294506934,0.9164168834686279,0.07798258001814282
0.07486300864112458,0.9494597911834717,0.07884800318695982
0.07826234171296419,0.9973108768463135,0.07847336625911931
0.08166283357537599,1.0171163082122803,0.08028858933439921
0.08506414005365234,1.0770747661590576,0.07897700579969807
0.08846601757891016,1.111649990081787,0.07958081983376933
0.0918683441169903,1.157132625579834,0.07939309815152389
0.09527056400702708,1.192831039428711,0.07986928647719925
0.09867251017225986,1.2236964702606201,0.08063479185426171
0.10207385960246049,1.2612321376800537,0.08093185746932999
0.10547456329688554,1.2954826354980469,0.08141719572824375
0.10887462235994598,1.3514511585235596,0.08056127050783685
0.11227403542618496,1.3833472728729248,0.08116113547758338
0.11567281258852058,1.4244823455810547,0.08120340202695665
0.11907108776225576,1.4627785682678223,0.0814006236796702
0.12246932488223117,1.480437994003296,0.08272506202779778
0.1258673879208159,1.5401113033294678,0.08172616332904724
0.12926602284750258,1.5690608024597168,0.08238432994110902
0.13266497036894048,1.622816562652588,0.08174982522491137
0.1360645770660768,1.654754638671875,0.08222643640708195
0.1394649299981221,1.693453073501587,0.08235535556338014
0.14286574482750877,1.7166404724121094,0.08322403387516741
0.14626688704298524,1.7554166316986084,0.08332317491002224
0.1496682608546986,1.7750039100646973,0.08431996121588449
0.15306980883602944,1.7978532314300537,0.08514032522792431
0.15647095140207357,1.8329436779022217,0.08536593529221387
0.15987171933766484,1.908106803894043,0.08378551924420605
0.16327207798962162,1.9405834674835205,0.08413556063184803
0.166671869892788,1.9732732772827148,0.0844646668110271
0.1700712645377427,2.0204174518585205,0.08417629949756142
0.17347027412749855,2.0586416721343994,0.0842644334249994
0.17686928292669044,2.099125623703003,0.08425855076490409
0.18026797437503356,2.1279547214508057,0.08471419648070788
0.18366698690367125,2.1530802249908447,0.08530429325012831
0.1870664301101781,2.181177854537964,0.08576395075760758
0.1904658627533748,2.2281274795532227,0.08548248002020352
0.1938661047009641,2.2651500701904297,0.08558642857807028
0.19726631086754287,2.326686143875122,0.08478423761057587
0.20066711187951608,2.357178211212158,0.08513022516711827
0.2040677382040989,2.400028944015503,0.08502719882314083
0.20746876653058421,2.4258956909179688,0.08552254217166164
0.2108692953570796,2.4527909755706787,0.08597116405649596
0.21426994762663837,2.4842591285705566,0.08625104569905691
0.21767012920235246,2.510300636291504,0.0867107811930921
0.2210699876973827,2.581899642944336,0.08562299789672685
0.22446958173303147,2.632533311843872,0.08526751806829334
0.22786928885682237,2.672335624694824,0.08526971191458955
0.23126857377725563,2.7189271450042725,0.08505876084329292
0.23466811822672284,2.7682762145996094,0.08477048532552744
0.2380675781220302,2.792224407196045,0.08526090435585654
0.24146710488974987,2.825320243835449,0.08546539296442789
0.24486682362332104,2.8476831912994385,0.08598808476008345
0.24826681144758828,2.9162204265594482,0.0851330747108486
0.2516670175458006,2.9402973651885986,0.08559236916829942
0.25506748550906344,2.9899868965148926,0.08530722519432052
0.2584679431527998,3.0198843479156494,0.08558868929242162
0.2618685598329986,3.0640196800231934,0.08546569120959967
0.26526908026930235,3.1253302097320557,0.08487713696404729
0.26866952820071877,3.1581645011901855,0.08507141667239562
0.2720698449298694,3.193983554840088,0.08518198051382611
0.27546998915202514,3.2330172061920166,0.08520523448635935
0.2788699064883915,3.2715001106262207,0.08524221215294749
0.28226967640564493,3.3117103576660156,0.08523380547222109
0.28566932181952265,3.338127613067627,0.08557771149947205
0.2890688666422862,3.3576250076293945,0.08609325519837588
0.29246844676757544,3.3831539154052734,0.08644846024764445
0.29586804999517685,3.4252607822418213,0.08637825520588019
0.29926776162850505,3.4969003200531006,0.08558086712176018
0.3026676119781748,3.5293896198272705,0.08575636146201038
0.3060676067014932,3.5489044189453125,0.08624284302152393
0.3094677541767932,3.5733087062835693,0.08660537882791998
0.3128679865286856,3.604344129562378,0.08680302859057815
0.31626830080386864,3.669436454772949,0.08618988356985681
0.31966866401855937,3.721304416656494,0.08590231494841646
0.32306899688238555,3.766225576400757,0.08578057536084462
0.32646926731468995,3.791001796722412,0.08611688540927245
0.3298694346064672,3.8106729984283447,0.08656461332224438
0.333269488739584,3.8409812450408936,0.08676675762733015
0.33666943377015895,3.8780062198638916,0.08681508349462504
0.3400692694390879,3.907891035079956,0.08702117494740486
0.34346903377366333,3.973597526550293,0.08643780138242849
0.34686875341704365,4.021098613739014,0.08626218522268674
0.350268491841218,4.07056736946106,0.08604905902530077
0.35366826786854766,4.1066179275512695,0.0861215418887133
0.35706810431641606,4.1437437534332275,0.08617041148371528
0.3604680099482847,4.187167644500732,0.08608874555613023
0.363868001363454,4.232945680618286,0.08596094276133152
0.36726805884309405,4.262186527252197,0.0861689314850022
0.37066819097947273,4.309577465057373,0.08601033256389976
0.37406838265797265,4.344109535217285,0.08610933486493277
0.37746858912103837,4.383088111877441,0.0861193248883501
0.3808687927343841,4.418229341506958,0.08620394354732125
0.3842689500392938,4.45779824256897,0.08620151230035138
0.38766906344967267,4.499552011489868,0.08615725798029163
0.39106909917190597,4.540534019470215,0.08612843720473556
0.39446907940102843,4.571423292160034,0.08629021077036134
0.397868986843823,4.6320624351501465,0.08589456476765435
0.4012688502861555,4.660425901412964,0.08610132609650492
0.40466869621763024,4.701143503189087,0.08607877975712026
0.4080685551143785,4.728454113006592,0.08630062708907367
0.41146842931344585,4.759395360946655,0.08645392914607619
0.41486834484367136,4.7887046337127686,0.08663477423998407
0.4182682951164045,4.837759017944336,0.08645910091117671
0.42166829107172216,4.885135173797607,0.08631660661785241
0.42506832320390775,4.936728000640869,0.08610324959137446
0.42846837898190787,4.956997871398926,0.08643707140850332
0.43186847930325956,5.013773679733276,0.08613641278802879
0.4352685819952835,5.048614263534546,0.08621545621719791
0.4386686883536642,5.096846103668213,0.08606669289817348
0.44206878894375207,5.14550256729126,0.08591362712631388
0.44546884651358687,5.160155296325684,0.08632857364405008
0.44886885852891667,5.180459022521973,0.08664654166309696
0.45226882939187174,5.208037614822388,0.08684054587176704
0.45566877240040426,5.242336273193359,0.08692093537197576
0.45906869291945335,5.271989107131958,0.08707694260946484
0.462468608056875,5.349460601806641,0.08645144669365137
0.4658685198219795,5.372655391693115,0.08671103688173973
0.4692684646343375,5.429644823074341,0.08642710157395363
0.47266842644472185,5.463028907775879,0.08652131160645016
0.4760684352944824,5.508553504943848,0.0864234930036021
0.47946846111557584,5.532937288284302,0.08665712914021718
0.48286851863187374,5.551717519760132,0.08697642070462126
0.4862685663532075,5.577428340911865,0.087185085424819
0.48966861312408505,5.609857797622681,0.08728717033283705
0.49306865086696333,5.674816846847534,0.0868871479333949
0.4964686784718056,5.718948125839233,0.08681118757288094
0.49986869324212485,5.753519296646118,0.0868805104266378
0.5032687118755873,5.80124831199646,0.08675179630474925
0.5066687253815945,5.836125373840332,0.08681594258626978
0.5100687023019662,5.867659091949463,0.08692882362606749
0.5134686884494537,5.911815166473389,0.08685465867765894
0.5168686615761761,5.946030616760254,0.08692667342130109
0.5202686209499559,5.965312242507935,0.0872156560795927
0.5236685799114636,5.990367412567139,0.08741844094785638
0.5270685349634483,6.019177675247192,0.08756487404100477
0.5304684907401324,6.05559229850769,0.08759976969897038
0.5338684477124795,6.134166240692139,0.08703194970018312
0.5372684401702816,6.165110349655151,0.08714660560785162
0.5406684366165628,6.2078025341033936,0.08709497984936351
0.5440684614396879,6.2484729290008545,0.08707222830629847
0.547468480870708,6.28461217880249,0.0871125322127715
0.5508685215135893,6.309935092926025,0.08730177306120944
0.5542685496939868,6.34729266166687,0.08732361642017458
0.5576685759351792,6.374196767807007,0.08748844697604789
0.5610685972027547,6.407679796218872,0.08756189682478163
0.5644686042937377,6.440469980239868,0.08764400828287297
0.5678686012504043,6.469146013259888,0.08778107652639731
0.5712686040377448,6.498554468154907,0.08790702714536783
0.5746685970372654,6.528084993362427,0.08803019532092064
0.5780685759534268,6.5600266456604,0.08811985182039339
0.5814685489713123,6.59181809425354,0.08821064851261767
0.5848685282623394,6.62433385848999,0.08829091962397854
0.5882684902313019,6.657206058502197,0.08836567248508097
0.5916684464215282,6.692537546157837,0.08840719119479622
0.5950684306263221,6.725365161895752,0.08848120753321054
0.5984684135559274,6.758153676986694,0.08855501697066627
0.6018684221775397,6.79186749458313,0.08861604303346042
0.6052684328566273,6.826339244842529,0.088666620738769
0.6086684509618683,6.8601484298706055,0.08872525969140713
0.6120684880724561,6.893890619277954,0.08878418905586906
0.6154685151707375,6.927633762359619,0.08884253069421831
0.618868533242525,6.961664199829102,0.08889663670616536
0.6222685466783299,6.997510671615601,0.08892713078702016
0.6256685527459548,7.030548572540283,0.08899284974570451
0.6290685535014373,7.064826488494873,0.0890423217790105
0.6324685401001472,7.098677396774292,0.08909667318978984
0.6358685207315166,7.132880449295044,0.08914610657667207
0.6392685075559431,7.16683292388916,0.08919818758786371
0.6426684769877691,7.200800180435181,0.08924959183479653
0.646068435656197,7.23717188835144,0.08927084303415174
0.6494684201452312,7.27051305770874,0.08932910442360273
0.652868403728927,7.304513216018677,0.0893787695937352
0.6562684003559122,7.338076114654541,0.08943330514728624
0.6596684181148649,7.37203049659729,0.08948259484538869
0.6630684349514405,7.406818628311157,0.08952135433922837
0.6664684643933879,7.440414905548096,0.08957409940894859
0.6698684823016771,7.476416349411011,0.08959753590427706
0.6732684943238941,7.5097496509552,0.08965258838398933
0.6766685013850865,7.54338526725769,0.08970355847025184
0.6800684994177405,7.577286720275879,0.08975092596113086
0.6834684871723359,7.611433506011963,0.08979497576014976
0.6868684644471064,7.647465467453003,0.08981648460792183
0.6902684313464749,7.684153079986572,0.089830124954731
0.6936684043551627,7.7174742221832275,0.08988282751386088
0.6970683806894085,7.750598907470703,0.08993735697218355
0.7004683823501536,7.784066677093506,0.08998745917881855
0.703868384537219,7.818227767944336,0.09002914796409016
0.7072683997834817,7.851744174957275,0.09007787111038042
0.7106684289381177,7.886488676071167,0.09011214725945099
0.7140684429650466,7.920454740524292,0.09015498053559726
0.7174684464326143,7.956027030944824,0.0901792369032978
0.7208684394094784,7.9890830516815186,0.09023168675881423
0.7242684267012056,8.022903442382812,0.09027510201295617
0.7276684091362333,8.05679965019226,0.09031730224529895
0.7310683898310021,8.091383457183838,0.09035147001739632
0.7344683744201652,8.125404119491577,0.09039161174252124
0.7378683720285715,8.159386396408081,0.09043184575170939
0.7412683907710816,8.19376015663147,0.09046742601699778
0.7446683980171686,8.22881531715393,0.09049521338324606
0.7480684197262073,8.262534618377686,0.09053740217467161
0.7514684264739384,8.29599928855896,0.09058202638834492
0.7548684228811608,8.329661846160889,0.09062413778886798
0.7582684085086423,8.364368438720703,0.09065459204288907
0.7616683855897445,8.398252248764038,0.09069367804495732
0.7650683582149407,8.43485713005066,0.09070317924997809
0.7684683451026599,8.468918323516846,0.09073984607558973
0.7718683461795256,8.502816915512085,0.09077795674647189
0.7752683464558721,8.536754608154297,0.09081534869414387
0.7786683666466587,8.57138967514038,0.09084505502124494
0.7820683803512707,8.609843254089355,0.09083421814674933
0.7854683889294466,8.64510440826416,0.09085701592899094
0.7888683884867861,8.685306549072266,0.09082792691652895
0.7922683777607042,8.747987508773804,0.09056578749867873
0.7956683565514301,8.783276557922363,0.09058901325767216
0.7990683327485679,8.820801734924316,0.09058908212218467
0.8024683277590643,8.886924505233765,0.09029764203425693
0.8058683368694659,8.923234224319458,0.09031123879648317
0.8092683464506445,8.961498022079468,0.09030502985736955
0.8126683717059834,8.98520827293396,0.09044513460572473
0.8160683839905742,9.03514575958252,0.09032155160585718
0.8194683874070074,9.077506303787231,0.09027461507408886
0.822868386257668,9.095872402191162,0.0904661312156756
0.8262683786709455,9.125383615493774,0.09054615274124408
0.8296683608581006,9.162628173828125,0.09054916833010228
0.8330683328225839,9.189982414245605,0.09064961120395892
0.8364683107297098,9.220267534255981,0.09072061169830335
0.8398683019893718,9.250452756881714,0.09079212921384484
0.8432683144504379,9.28328824043274,0.0908372435079242
0.8466683259501844,9.316650390625,0.09087690215382078
0.8500683459819729,9.348785638809204,0.09092821023225962
0.8534683510685389,9.381456851959229,0.09097396753365658
0.8568683456531103,9.41498875617981,0.09101108539196917
0.860268334511799,9.448647022247314,0.09104672155561044
0.8636683184910239,9.482219457626343,0.09108292866986897
0.8670683007139172,9.516122817993164,0.09111571144021567
0.8704682868197909,9.550768613815308,0.09114117638245864
0.8738682859433231,9.585026741027832,0.09117014584871315
0.8772683062023834,9.620917320251465,0.09118343677642726
0.8806683149669966,9.657614946365356,0.0911890067949371
0.8840683382105844,9.690753698348999,0.09122802681087663
0.8874683465111841,9.724106311798096,0.09126477210912777
0.8908683444936901,9.758516788482666,0.09129136771534004
0.8942683316987223,9.7924325466156,0.09132238873657535
0.8976683103833863,9.828630685806274,0.09133198093196516
0.9010682846401715,9.86067533493042,0.09137997693202925
0.9044682659354057,9.895484209060669,0.09140212311260539
0.9078682552489056,9.929359436035156,0.09143271135438139
0.9112682521950275,9.963232517242432,0.09146311205906126
0.9146682744019216,9.997228145599365,0.09149218774251393
0.9180682854805507,10.031312942504883,0.09152025171007208
0.9214683182228492,10.068222522735596,0.09152244262997088
0.9248683315689994,10.101524591445923,0.09155730139509709
0.9282683362484776,10.135527610778809,0.09158559592509954
0.931668336346979,10.16920280456543,0.09161665415195669
0.9350683299980079,10.203270673751831,0.0916439796509069
0.938468313412299,10.244168758392334,0.09161000131352554
0.9418682865930067,10.278634548187256,0.09163359998620779
0.9452682489683367,10.311607122421265,0.09167031266280233
0.9486682371378152,10.345062971115112,0.09170250966926272
0.9520682243885606,10.378875732421875,0.09173134440895736
0.9554682246586841,10.412836790084839,0.09175868631384737
0.9588682460348534,10.446753025054932,0.09178624628486529
0.9622682664711613,10.482499122619629,0.09179760047818498
0.9656682861714416,10.516562223434448,0.09182356987529698
0.9690682954869277,10.550548553466797,0.09185003894119821
0.972468294447523,10.584726810455322,0.0918746711050628
0.9758682826178942,10.619410514831543,0.09189476960655706
0.9792682622345327,10.653810739517212,0.09191718214049194
0.9826682373922342,10.688175916671753,0.0919397514649284
0.9860682195621248,10.72915244102478,0.09190550931047652
0.9894682097356574,10.765826940536499,0.09190824032383607
0.9928682075264574,10.804669618606567,0.09189250968087477
0.9962682305711098,10.836701154708862,0.09193464102663773
0.9996682424829411,10.873123168945312,0.09193938364812144
1.003068253709696,10.907975435256958,0.09195732605590222
1.0064682559269382,10.94003701210022,0.09199861525273953
1.009868247851417,10.972153425216675,0.09203920221626634
1.0132682292816317,11.0049467086792,0.09207388787103386
1.0166682081070042,11.038036346435547,0.09210589421870416
1.0200682057229928,11.071418046951294,0.09213528035858841
1.023468217424449,11.105858325958252,0.09215570623949415
1.0268682204102735,11.141111135482788,0.09216928257181192
1.0302682353159873,11.174433946609497,0.09219869572262201
1.0336682379721507,11.210275888442993,0.09220720776709787
1.0370682303251455,11.244054079055786,0.0922325900456922
1.0404682121694464,11.284285545349121,0.09220505879508525
1.0438681913992596,11.317858457565308,0.09223195318381955
1.0472681893755806,11.352646350860596,0.09224881644412289
1.0506682014182713,11.385302066802979,0.09228285690212712
1.0540682047176935,11.418221712112427,0.0923145680031366
1.05746821990486,11.45180630683899,0.09234073573819902
1.06086822281827,11.485321044921875,0.09236731116779036
1.0642682154085141,11.518864154815674,0.09239350348303024
1.0676681974772368,11.55288314819336,0.09241573586280052
1.0710681769171435,11.588181972503662,0.09242762837678635
1.0744681751055498,11.622271060943604,0.09244907208508304
1.0778681873571085,11.663552045822144,0.09241337314074903
1.0812681908743689,11.695586919784546,0.09245095592810898
1.0846682062917623,11.728259563446045,0.09248330499713639
1.0880682094520238,11.762324571609497,0.09250452177440109
1.0914682023097253,11.797135829925537,0.09251976225797297
1.094868184659766,11.830472469329834,0.09254644626393248
1.0982681566030255,11.864060401916504,0.0925710186392521
1.101668155397683,11.898173093795776,0.09259137068464239
1.105068154694398,11.93233609199524,0.09261121595759682
1.1084681615162257,11.966442346572876,0.09263138779369
1.1118681773756929,12.00069546699524,0.09265031184514216
1.1152681810109173,12.03564977645874,0.09266372831754695
1.1186681743552458,12.069873094558716,0.09268267906309294
1.122068157198159,12.103411197662354,0.09270676992407517
1.1254681374287492,12.137137174606323,0.0927292920264168
1.1288681364348527,12.17121434211731,0.09274901457683755
1.1322681495176103,12.21372365951538,0.09270458224552108
1.1356681538762714,12.245815992355347,0.09273927965153413
1.1390681701416328,12.278795003890991,0.09276709724208905
1.1424681741465001,12.312282085418701,0.092790935605635
1.145868167835729,12.346221923828125,0.09281124014336817
1.1492681510052607,12.39553427696228,0.09271630615722898
1.1526681237591991,12.430954694747925,0.0927256314630606
1.1560681233107524,12.496026515960693,0.09251485836991072
1.1594681233497175,12.524642705917358,0.09257494609422418
1.162868130858515,12.581482410430908,0.09242695677056448
1.1662681473650016,12.62930965423584,0.09234615187171677
1.1696681516089098,12.666525840759277,0.09234324915242866
