Distance,Time,Velocity
0.0,0.03126168251037598,0.0
2.1217203419552574e-06,0.06512856483459473,3.257741587495032e-05
0.0011512077474020404,0.09869599342346191,0.011664179137066941
0.00346000249572239,0.13547682762145996,0.0255394413677156
0.006856300038993895,0.16869401931762695,0.040643409094927384
0.010252903460812339,0.20235300064086914,0.05066840337598416
0.01364989515882818,0.23600435256958008,0.0578374721068072
0.017047277083481548,0.2725236415863037,0.0625533879712339
0.020445047854277802,0.30826473236083984,0.06632301949593707
0.023843204245326242,0.3407480716705322,0.0699731157052009
0.027241743990408098,0.38165283203125,0.07137833576504818
0.030640665375166923,0.41957569122314453,0.07302774211214058
0.03403996584462811,0.4533572196960449,0.07508420372669997
0.037439642874611316,0.48789262771606445,0.07673746383476777
0.04083969181899111,0.5204706192016602,0.0784668534827851
0.04424011094040388,0.5526046752929688,0.08005743150281809
0.04764089954891763,0.5858080387115479,0.0813251037894617
0.051042055265199074,0.619337797164917,0.08241391934877763
0.05444357575818056,0.6555831432342529,0.08304602752533981
0.057845458589293,0.6999139785766602,0.08264652565866322
0.06124770123894814,0.7312207221984863,0.08376089377609672
0.06465030122180922,0.7628107070922852,0.08475274484314206
0.06805325620117951,0.8006341457366943,0.08499919290671906
0.07145656368130576,0.8339443206787109,0.08568505343756089
0.07486022099585539,0.8647305965423584,0.08657057041254859
0.07826422578019623,0.8973631858825684,0.08721577507463976
0.08166867183605378,0.9305565357208252,0.08776325639665924
0.08507295846083404,0.9636561870574951,0.08828144270064059
0.08847678726356178,0.9994900226593018,0.08852193144275243
0.09187950806164386,1.0323433876037598,0.08900091690896711
0.09528098857833127,1.0746800899505615,0.08865986210158083
0.09868126685943264,1.1064708232879639,0.08918560235162243
0.10208034326050139,1.1414642333984375,0.08942929640167657
0.10547819277262027,1.1785731315612793,0.08949651909414498
0.10887514998022049,1.2100551128387451,0.0899753646136029
0.11227151602041321,1.2427289485931396,0.09034272207749953
0.11566793174226754,1.2760059833526611,0.09064842426393181
0.1190647454269321,1.3131844997406006,0.09066871064229856
0.12246196710014892,1.345531702041626,0.09101381031330051
0.125859575929296,1.3784823417663574,0.0913030019434433
0.12925756820154316,1.4114317893981934,0.09157903993125735
0.13265594148311005,1.4477577209472656,0.09162855052592189
0.13605469286991845,1.4803869724273682,0.09190481637840384
0.1394538189231545,1.514219045639038,0.09209619924196735
0.14285331561117592,1.5479776859283447,0.09228383387548944
0.14625317759482567,1.5820138454437256,0.09244747004967227
0.149653394531885,1.6159636974334717,0.09260937901610636
0.15305395877421757,1.6501660346984863,0.09275064178749938
0.15645484721897568,1.6867551803588867,0.0927549232044968
0.15985607530861165,1.7220165729522705,0.09283074148035067
0.16325792257918376,1.7558238506317139,0.09298080927676572
0.16666015175501053,1.7898037433624268,0.09311643937111973
0.17006278007660391,1.8236966133117676,0.09325168387946722
0.1734658244082351,1.8574931621551514,0.0933870594748095
0.1768692600837256,1.891350507736206,0.09351479768571498
0.18027251088237745,1.9255797863006592,0.09361986045185341
0.18367528876322312,1.9601762294769287,0.09370345686328249
0.1870772071621979,1.994983196258545,0.0937738260217171
0.1904780506351228,2.028988838195801,0.09387831369466673
0.19387777245204701,2.062868118286133,0.09398456970343023
0.19727647644315147,2.097128391265869,0.09406981340044297
0.20067436195388916,2.137477397918701,0.09388373516804868
0.2040718597775384,2.186258554458618,0.09334296685145393
0.20746916372960594,2.216177463531494,0.09361577181594583
0.21086676589639278,2.2465124130249023,0.09386405553506966
0.21426483389345258,2.278554916381836,0.09403540478791185
0.21766342097922534,2.311922550201416,0.09414823215434374
0.22106251256539433,2.344254970550537,0.09429968810665627
0.22446210637627625,2.377350091934204,0.09441693385329489
0.22786219774261732,2.4101226329803467,0.09454381890138261
0.23126278525603344,2.444007635116577,0.09462441194256023
0.2346638694557362,2.478027820587158,0.09469783490975238
0.23806544787542072,2.5123584270477295,0.09475775642218824
0.24146748505542423,2.5468411445617676,0.09481057959622892
0.2448697997060705,2.582876443862915,0.09480507683125816
0.2482720260926708,2.615792751312256,0.09491272806995929
0.25167385059618896,2.649911403656006,0.09497443961672147
0.2550750961409539,2.683277130126953,0.09506103312142254
0.25847561385135687,2.7174649238586426,0.09511644900436708
0.26187539168955964,2.751659870147705,0.09516997159808947
0.2652744898138438,2.7855937480926514,0.09523086056446035
0.26867304740688913,2.8197667598724365,0.09528201099123661
0.27207130364186133,2.8560585975646973,0.09526110699334074
0.27546949283749406,2.88948917388916,0.0953350146893684
0.27886785730159847,2.9234509468078613,0.0953899560401711
0.282266650190011,2.9572267532348633,0.09544978242917761
0.2856659680748738,2.9910759925842285,0.09550608837191872
0.2890658026939966,3.0291359424591064,0.09542846811270142
0.2924661344390361,3.064723491668701,0.0954298602252669
0.2958669688398894,3.0987489223480225,0.09547949067641834
0.29926818740241085,3.13150691986084,0.0955668293448031
0.30266961525195313,3.165581226348877,0.09561265170916075
0.30607101368591694,3.1995933055877686,0.09565934931523785
0.309472236652974,3.2334985733032227,0.0957081717023393
0.3128730976991791,3.2683298587799072,0.09572873951467586
0.31627352524705693,3.302523612976074,0.09576722600994413
0.3196734802666774,3.3383235931396484,0.09575868586365194
0.32307299259372085,3.3739895820617676,0.09575399826703032
0.32647216476859636,3.407344341278076,0.09581425652041332
0.32987110919863644,3.441016435623169,0.0958644387116671
0.33326999934196017,3.4769787788391113,0.0958504553925497
0.33666896637049076,3.514389991760254,0.09579726984194581
0.3400681562838781,3.548845052719116,0.09582502229093343
0.3434676537217032,3.5817348957061768,0.0958942143187247
0.34686751648944786,3.615255117416382,0.0959455156617922
0.3502677651042576,3.6490509510040283,0.09598872961965144
0.3536683253730317,3.682917833328247,0.0960293825109376
0.3570690993807583,3.7170443534851074,0.09606264155712042
0.3604699843539175,3.7516672611236572,0.09608261054738464
0.3638708466841172,3.7859809398651123,0.09611005772709497
0.3672715695429476,3.8203070163726807,0.09613666335426255
0.3706720715127555,3.8633475303649902,0.09594582641073872
0.37407229192390445,3.895556926727295,0.0960253691474526
0.3774722327210499,3.9280893802642822,0.09609563229838053
0.38087189037293795,3.9624743461608887,0.09611971134701534
0.38427134503618804,3.996741533279419,0.09614615852351216
0.3876706816398807,4.031103849411011,0.09616985722075201
0.3910699830757903,4.0647132396698,0.09621096496036191
0.39446934772103326,4.098554849624634,0.09624596039190758
0.39786885611284295,4.132683753967285,0.09627372424296866
0.4012685729517296,4.167230844497681,0.09629141939222198
0.40466852234662376,4.203369140625,0.09627242071974043
0.4080687048071517,4.235311985015869,0.09634914883504685
0.411469077183522,4.269531011581421,0.09637336655182535
0.4148695921258038,4.303880929946899,0.09639430060415784
0.418270157082176,4.345485687255859,0.09625394885290955
0.42167070571428383,4.3809003829956055,0.09625206438178598
0.4250711519119123,4.421641826629639,0.096134234426654
0.42847144700033424,4.454711675643921,0.09618387859824833
0.43187156744304556,4.4869678020477295,0.09625020425730516
0.43527149046360686,4.51950740814209,0.09630949817217829
0.4386712620637653,4.5524139404296875,0.09636014382786125
0.442070893015688,4.58557391166687,0.09640470343111184
0.44547046946757246,4.61893630027771,0.09644438470406896
0.4488700187545587,4.652658939361572,0.09647602040139044
0.45226962389930486,4.691297769546509,0.09640607910996538
0.45566933863352577,4.727287530899048,0.09639128901196019
0.45906917300581346,4.760318279266357,0.09643665529788137
0.46246914220070773,4.80042290687561,0.09633924993115014
0.4658692496527829,4.834201335906982,0.09636943463493076
0.4692694800481104,4.868056535720825,0.0963977054507697
0.472669796497875,4.904565811157227,0.09637342319326511
0.47607014881054394,4.937220096588135,0.09642473689587631
0.4794705021745846,4.970903396606445,0.09645540536995977
0.4828707860504702,5.007776498794556,0.09642418869266713
0.4862709933585031,5.055291414260864,0.09619049694875027
0.48967107613089267,5.112995386123657,0.09576990377496304
0.4930710430123475,5.1439290046691895,0.09585494717457854
0.4964709030798858,5.171985149383545,0.0959923295872303
0.4998706865715269,5.220550060272217,0.09575057815755568
0.5032704237850588,5.2516396045684814,0.09583110450824847
0.5066701528784219,5.29019570350647,0.09577531366988723
0.5100698943054821,5.322796106338501,0.09582743432499317
0.5134697188378881,5.35256552696228,0.09592964649407953
0.5168696079686081,5.383626222610474,0.09600770681252506
0.520269601949433,5.415736675262451,0.09606626635410043
0.5236696785681652,5.448338985443115,0.0961154729849422
0.5270698314989205,5.482906341552734,0.09612964341638867
0.5304700447346378,5.515899419784546,0.0961710873174983
0.5338702822900383,5.549161195755005,0.09620738404543702
0.5372704993536048,5.582550525665283,0.09624104553708043
0.5406706854706783,5.6161744594573975,0.09627027959578642
0.5440707975165727,5.65003228187561,0.09629516618194622
0.5474708466203102,5.6838059425354,0.09632117143958956
0.5508708128373373,5.717897176742554,0.09634150384480411
0.5542707046913418,5.752371311187744,0.09635516810490741
0.557670555877523,5.786051988601685,0.09638187782897804
0.5610703768583122,5.819879531860352,0.09640584032483632
0.564470194846097,5.8544628620147705,0.09641707670715989
0.5678700284535126,5.888315916061401,0.0964401429115834
0.5712699244169483,5.922706127166748,0.09645420727471202
0.5746698650301353,5.958535432815552,0.09644481794389362
0.5780698805427266,5.993866443634033,0.09644357043635551
0.5814699366222283,6.0279624462127686,0.09646210337417624
0.5848700317624848,6.061798810958862,0.09648456671064762
0.5882701605628724,6.09678053855896,0.09648865607714927
0.5916702924325187,6.130198001861572,0.09651732166772505
0.5950704305542214,6.163912534713745,0.09654102442286792
0.5984705201751386,6.200503349304199,0.09651966726899631
0.6018705941512298,6.232933044433594,0.09656298084073574
0.60527062126471,6.2675440311431885,0.09657221684556873
0.6086706187888091,6.300087928771973,0.09661303551162541
0.6120705895919439,6.3339762687683105,0.09663291487370312
0.6154705201122197,6.368007183074951,0.09665041235318211
0.6188704236473523,6.401934862136841,0.09666927842511436
0.6222703200011386,6.436349868774414,0.09668062375229906
0.6256702113718886,6.471193552017212,0.09668544239058552
0.629070130372541,6.504622936248779,0.0967112369983626
0.6324700672293265,6.5384674072265625,0.09673062934141059
0.6358700657268732,6.572533369064331,0.09674657092192078
0.6392701008591094,6.607856035232544,0.09674395105622367
0.6426701739846744,6.642375946044922,0.09675305631674466
0.6460702505883297,6.683911561965942,0.09666050255133847
0.6494703410965684,6.71587610244751,0.0967067187049323
0.652870423602299,6.748777389526367,0.09673906634044685
0.6562704848961658,6.781812906265259,0.09676918162839347
0.6596705192928266,6.815338373184204,0.0967920421806762
0.663070511948266,6.84895396232605,0.09681339889209495
0.66647048806486,6.886875629425049,0.0967739979530457
0.6698704292607637,6.9205098152160645,0.09679495400583428
0.6732703758133879,6.953419923782349,0.09682578978304521
0.6766703101038158,6.987118721008301,0.09684540038932765
0.6800702687992547,7.020713806152344,0.09686625713233037
0.6834702191257352,7.054509878158569,0.09688415367335777
0.6868701880436919,7.088597297668457,0.09689789942921621
0.690270185181458,7.122788667678833,0.09691010324561582
0.6936702203999228,7.1588921546936035,0.09689630817320385
0.6970702460685593,7.192677974700928,0.09691386831447066
0.7004702847551154,7.227196216583252,0.09692144280624936
0.7038703371029031,7.261053085327148,0.09693777594399589
0.707270382894892,7.294975757598877,0.09695308201102072
0.7106704414812157,7.329341411590576,0.09696238741960714
0.7140704716192029,7.363337516784668,0.09697646888947914
0.7174704982004044,7.399163484573364,0.09696643407004998
0.7208704912382617,7.4325034618377686,0.09698892101962352
0.7242704765816355,7.466099977493286,0.09700787275350771
0.7276704492034065,7.499644041061401,0.09702733159325007
0.7310704144330722,7.533633708953857,0.09704087598049557
0.7344703869898271,7.5678651332855225,0.09705119925557701
0.7378703645694833,7.6016247272491455,0.09706745479350988
0.7412703512567813,7.637538909912109,0.09705618000777054
0.7446703483156158,7.671945333480835,0.09706408426371722
0.7480703559348841,7.705770492553711,0.09707924167450409
0.7514703740098995,7.7387025356292725,0.09710547350154655
0.754870397719652,7.772734642028809,0.09711773686932644
0.7582704262524047,7.807178020477295,0.09712477725799924
0.7616704564877216,7.840970754623413,0.09713981601558762
0.7650704827942466,7.87574315071106,0.09714264014884391
0.7684704901952019,7.91173243522644,0.0971304953101852
0.7718704888958091,7.944517135620117,0.0971576340914469
0.7752704800883243,7.978571891784668,0.09716907870274386
0.7786704518734455,8.012861251831055,0.09717757832079123
0.7820704293676267,8.046802520751953,0.09719021031654997
0.7854704072879384,8.080961227416992,0.09720012077560816
0.788870394321184,8.114710092544556,0.09721485861164209
0.7922703917106902,8.151792764663696,0.09718971207720288
0.7956703996490777,8.183515310287476,0.09722843661682193
0.7990704180359028,8.217654943466187,0.0972382539219707
0.8024704420162426,8.251945734024048,0.09724620930401093
0.8058704707855328,8.286293029785156,0.09725343623364802
0.8092704980919648,8.320734024047852,0.09725950808583506
0.8126705114407592,8.354678869247437,0.09727130439831759
0.8160705162775242,8.391075849533081,0.0972545750880007
0.8194705017459736,8.425096273422241,0.09726541693429312
0.8228704880591483,8.45838975906372,0.09728453186700087
0.8262704618086277,8.492023468017578,0.09729959707724602
0.8296704516256445,8.526478290557861,0.09730517376023973
0.8330704522345558,8.560220718383789,0.09731880516181872
0.8364704614476288,8.594052076339722,0.0973313233405363
0.8398704751721149,8.628544569015503,0.09733628521640031
0.8432704952834067,8.663724660873413,0.0973334828023487
0.8466705121385537,8.700761556625366,0.09730993162246122
0.850070503593572,8.735644578933716,0.09731056431067994
0.8534705061651915,8.775233268737793,0.09725901067561621
0.8568704870229157,8.808475732803345,0.09727795285078364
0.8602704872466889,8.842625856399536,0.09728676766574927
0.8636704960938413,8.876057863235474,0.097303387314672
0.8670705094820014,8.908280611038208,0.09733309348244132
0.8704705159418613,8.941609382629395,0.0973505415739698
0.8738705144294264,8.975234985351562,0.09736463901565433
0.8772705115424567,9.00912594795227,0.09737576282212548
0.8806704978402724,9.042780876159668,0.09738934404150683
0.8840704840943109,9.077500820159912,0.097391396774199
0.887470484158363,9.112399816513062,0.09739152166590966
0.8908704928285844,9.145568370819092,0.0974100741153605
0.894270506017438,9.179447889328003,0.09742094696753102
0.8976705255919228,9.214543104171753,0.09741888615025474
0.901070548070364,9.248393297195435,0.09742995557332242
0.9044705506531036,9.282812118530273,0.09743497327147307
0.907870552741336,9.319553136825562,0.09741567427240144
0.9112705328875468,9.35243010520935,0.09743676484467545
0.9146705158032605,9.386372566223145,0.09744664505377741
0.9180705017791169,9.420995473861694,0.09744941543876966
0.9214704981457609,9.455058574676514,0.09745793649694943
0.9248705050506222,9.492282390594482,0.09743394338615957
0.9282705224003287,9.528733491897583,0.09741803810439764
0.9316705453591286,9.561957597732544,0.09743512621098199
0.9350705630601682,9.594998121261597,0.0974539599948583
0.9384705825674681,9.62868595123291,0.09746611192021494
0.941870577472164,9.663398265838623,0.09746784221879788
0.9452705643539119,9.697042465209961,0.09748029543494886
0.9486705479742131,9.730937480926514,0.09749014931333082
0.9520705346605038,9.76481318473816,0.09750012792344408
0.9554705278553364,9.79960584640503,0.09750091410113697
0.9588705313602942,9.833628416061401,0.09750933132618247
0.9622705451722887,9.86748719215393,0.09751931027966593
0.9656705697295668,9.901301622390747,0.09752965888301038
0.9690705820974148,9.93521499633789,0.09753896442649838
0.9724705910966719,9.969358444213867,0.09754595509213392
0.9758705736604458,10.003792762756348,0.09755005894300073
0.9792705643168318,10.039746522903442,0.0975393713459642
0.9826705572809241,10.072787761688232,0.09755696044927142
0.9860705605265785,10.106020212173462,0.09757258938971666
0.9894705740677784,10.139871835708618,0.09758215785166577
0.9928705984660158,10.174129724502563,0.09758776675265554
0.9962705971407295,10.207915782928467,0.09759784644842724
0.9996705967706873,10.241984367370605,0.09760516721305344
1.0030705834580507,10.278478145599365,0.09758940664649912
1.0064705738358362,10.31282925605774,0.0975940305852186
1.009870566489757,10.346452713012695,0.09760548803549321
1.0132705693994817,10.380106449127197,0.0976165874950812
1.0166705825786464,10.413814783096313,0.09762710435650386
1.0200706064908889,10.447454690933228,0.09763819386325286
1.0234706181782756,10.481152057647705,0.09764867569414636
1.0268706264597383,10.516772270202637,0.09764123440888699
1.0302706082688329,10.55082893371582,0.09764830941164632
1.0336705981643979,10.58512282371521,0.09765315106675314
1.037070590340331,10.618601560592651,0.09766545852789767
1.0404705927838551,10.651915311813354,0.09767920250266504
1.0438706055154383,10.686527013778687,0.09768099628340643
1.0472706290889764,10.720005512237549,0.09769310546468024
1.0506706269453947,10.753878593444824,0.09770155184621905
1.0540706257574777,10.787621259689331,0.0977111265201976
1.0574706116655823,10.823354959487915,0.09770266388044381
1.0608706012562708,10.855932474136353,0.09772266028586077
1.064270593170991,10.890847206115723,0.09772156132842935
1.0676705953825758,10.92479157447815,0.0977291500807031
1.071070607907342,10.958777666091919,0.09773632065019378
1.0744706311821606,10.993218898773193,0.09773940108679796
1.0778706525585493,11.027499437332153,0.09774388642538122
1.0812706637094436,11.061864852905273,0.09774759302229769
1.084670653687812,11.101149082183838,0.0977079620909328
1.0880706445781188,11.13462233543396,0.09771958238004418
1.0914706228105167,11.168769121170044,0.0977252382038831
1.0948706125597303,11.202903270721436,0.09773097081192808
1.0982706081478417,11.237356662750244,0.09773389250769314
1.101670608664814,11.272236347198486,0.0977331005784504
1.1050706181789223,11.305724620819092,0.09774434237890191
1.108470637939973,11.339756488800049,0.09775083257164979
1.111870666944976,11.37365198135376,0.09775845689386344
1.115270674560965,11.407687187194824,0.09776483666319856
1.1186706829454591,11.441648244857788,0.09777181215549276
1.1220706713482433,11.475343942642212,0.09778100568982905
1.125470654572995,11.51132082939148,0.09777076594888813
1.1288706377220448,11.5448477268219,0.09778133626651164
1.1322706346765192,11.579022407531738,0.09778637563910558
1.1356706402340877,11.613223791122437,0.09779116123657541
1.1390706503124375,11.647143602371216,0.09779828335597551
1.142470666785056,11.681400060653687,0.09780254600073372
1.1458706876915992,11.71608853340149,0.09780317760699976
1.1492707005400817,11.751605987548828,0.09779690552574412
1.152670705849819,11.785739183425903,0.09780215631029755
1.156070685951095,11.819692373275757,0.09780886417695293
1.1594706773407935,11.854382514953613,0.09780945366645531
1.1628706544932488,11.888584852218628,0.09781405179408177
1.1662706478548341,11.923503875732422,0.0978127453146145
1.169670651781403,11.959243297576904,0.09780473753037479
1.1730706661866037,11.99291443824768,0.09781364423358668
