Distance,Time,Velocity
0.0,0.03838157653808594,0.0
2.0545509444133933e-06,0.07425332069396973,2.7669482323640346e-05
3.4778699155059997e-06,0.10687065124511719,3.2542797063425774e-05
4.0690849328383726e-06,0.1401195526123047,2.9040093669846927e-05
0.0011512850758830327,0.175537109375,0.006558642101275246
0.0034627393822902323,0.20879626274108887,0.01658429771122911
0.006862466741358453,0.24200057983398438,0.028357232639963908
0.010263315305183447,0.2759530544281006,0.03719225114740503
0.0136650002735936,0.3097827434539795,0.044111560641607
0.017067132847656784,0.3442807197570801,0.049573304191123824
0.020469547330789994,0.37832212448120117,0.054106133387943386
0.023871857665821606,0.4182579517364502,0.0570744861316195
0.027273587493176103,0.45313549041748047,0.060188592749706143
0.03067474631483057,0.48697853088378906,0.06298993563260531
0.03407526346672362,0.5221555233001709,0.06525883945717609
0.037475133418201106,0.5552446842193604,0.06749300710710779
0.04087436127160775,0.5893476009368896,0.06935526878641657
0.044272954838057224,0.6274278163909912,0.0705626267778792
0.04767118076811193,0.6721487045288086,0.0709235626683689
0.05106912804627567,0.738450288772583,0.06915716443304579
0.05446735956671828,0.7762467861175537,0.07016758141974429
0.05786592165671361,0.8082787990570068,0.07159153713325642
0.0612648649226014,0.8567683696746826,0.07150691726150422
0.06466467240494723,0.889625072479248,0.07268755614625019
0.06806515711991173,0.9162774085998535,0.07428444320581999
0.07146618478700997,0.955298662185669,0.07481030552633604
0.07486741336887764,1.0056257247924805,0.07444858611222101
0.07826898374430158,1.0430595874786377,0.07503788343818331
0.0816704198251778,1.06730318069458,0.07652035644832265
0.08507160283842444,1.0913920402526855,0.0779477948352346
0.08847237618307963,1.1213006973266602,0.07890156172560163
0.09187263149780274,1.1483969688415527,0.08000076105258219
0.09527239769061145,1.1859407424926758,0.0803348719518335
0.0986715724458726,1.227548599243164,0.080380990623677
0.10207061070866685,1.2617387771606445,0.08089678510028961
0.10546928693026925,1.2947173118591309,0.08146124714963618
0.10886817609667766,1.3306782245635986,0.08181405097568305
0.11226720549977315,1.369556188583374,0.08197342061292047
0.11566641915558493,1.4021601676940918,0.08249158820835922
0.11906626418112887,1.4326696395874023,0.08310796913056594
0.12246628118902395,1.46421480178833,0.0836395596052224
0.12586688104971736,1.4965131282806396,0.08410676703807282
0.12926755911107723,1.5295660495758057,0.08451257083466712
0.13266837853125593,1.5650722980499268,0.0847682108338127
0.13606941065581213,1.6010394096374512,0.08498817070756834
0.13947009822249268,1.63429594039917,0.08533956107632971
0.1428706293914272,1.6670629978179932,0.08570199781197804
0.14627097209707207,1.7021710872650146,0.08593200365780788
0.14967082187902744,1.7353918552398682,0.08624612442838724
0.1530703899770519,1.7701587677001953,0.08647268977794699
0.156469883205348,1.8053395748138428,0.08667061055340924
0.15986906137692436,1.841050386428833,0.0868357881758084
0.16326830374731283,1.8738749027252197,0.08712871041170782
0.16666769063468162,1.9084532260894775,0.08733129445157668
0.17006733613989358,1.9423348903656006,0.08755819451293606
0.17346688865633608,1.9773595333099365,0.08772652910822284
0.17686706836813554,2.011481523513794,0.08792875614346783
0.18026714953194953,2.048610210418701,0.08799485066273588
0.18366747954381155,2.0821614265441895,0.08821000965743979
0.1870681461995336,2.115595817565918,0.08842338628498679
0.19046848618134607,2.14937162399292,0.0886158931546281
0.19386915007648511,2.1832568645477295,0.08879814062402863
0.19726934431852036,2.217336416244507,0.08896680849748304
0.20066959971110157,2.252218723297119,0.08909862867019096
0.2040695506728696,2.2890329360961914,0.08915098924740594
0.20746921940454296,2.3231918811798096,0.08930352291829714
0.21086897811168123,2.3575925827026367,0.0894425014986901
0.21426852350792297,2.391958236694336,0.08957870594096998
0.21766794760800082,2.42602276802063,0.08972213718570916
0.22106752571857977,2.461030960083008,0.08982720221899337
0.22446741215161536,2.496396780014038,0.08991656051981974
0.227867045412506,2.5326120853424072,0.08997313356091742
0.23126724424137307,2.572678565979004,0.08989356357985862
0.2346673106371942,2.6044750213623047,0.09010157851867145
0.2380676295369342,2.636655330657959,0.09029152455718438
0.2414680077184685,2.6717746257781982,0.09037738639655542
0.2448683493300359,2.7059903144836426,0.0904912142587479
0.24826871804415662,2.739041328430176,0.09064073457644636
0.25166912572852623,2.7721364498138428,0.09078525905369
0.25506935210999354,2.8060789108276367,0.09089885217617145
0.2584694580660337,2.839698553085327,0.0910200337233708
0.2618694557589379,2.8734617233276367,0.09113378947525277
0.2652693249814968,2.9079430103302,0.09122232589811834
0.26866908666517414,2.944674491882324,0.09123897646609924
0.2720687982061617,2.9779021739959717,0.09136257079965775
0.2754685029527898,3.011803150177002,0.09146298387283401
0.2788682399494191,3.0457801818847656,0.0915588858342535
0.2822680306116219,3.079759120941162,0.09165263240631688
0.28566791244432027,3.1132073402404785,0.09176000221760172
0.2890679124923577,3.1522748470306396,0.0917013669555661
0.29246797510417466,3.1857125759124756,0.09180614011306522
0.295868153780142,3.218689441680908,0.09192193255700669
0.29926836687284325,3.2523748874664307,0.09201533563247086
0.30266861480136953,3.28640079498291,0.0920972923519949
0.3060688261831891,3.320707082748413,0.0921697754593484
0.3094689960982641,3.355003595352173,0.09224103262571298
0.3128691210450478,3.389763355255127,0.09229821915444598
0.31626915565459335,3.42551326751709,0.09232752319299417
0.3196691073810932,3.4576170444488525,0.09245358964617459
0.3230690016928294,3.4918177127838135,0.09252172600821885
0.3264688631762179,3.525743246078491,0.09259575652292124
0.3298686977828916,3.559772491455078,0.0926656685433444
0.33326852996273776,3.5940494537353516,0.09272786428032219
0.3366683932819973,3.6280899047851562,0.09279494227471018
0.3400682897893569,3.6643426418304443,0.0928047191622569
0.3434682405649224,3.698604106903076,0.09286428896887698
0.3468682394342018,3.7324705123901367,0.09293261347484301
0.3502682920278362,3.7661569118499756,0.09300416850018625
0.3536683805886005,3.800631523132324,0.09305516160564851
0.357068492138535,3.835176944732666,0.09310352489184165
0.3604686294283999,3.8720688819885254,0.09309458080799404
0.3638687421382609,3.906412124633789,0.0931465320424614
0.3672688495146516,3.940943717956543,0.09319312220604048
0.3706689182378783,3.9777214527130127,0.09318624309026537
0.3740689364143257,4.012443780899048,0.09322720936179946
0.37746890386309734,4.047741413116455,0.09325420409513631
0.38086883147234585,4.081346750259399,0.0933194003788428
0.3842687202418268,4.116227626800537,0.09335458460554362
0.3876686017754116,4.1507203578948975,0.09339790888057412
0.39106849093272206,4.184382915496826,0.09345905927595757
0.3944683956207982,4.218209743499756,0.09351559538467058
0.397868334574885,4.257378101348877,0.0934538406275983
0.4012683082841832,4.292076587677002,0.0934904818418819
0.4046683028742033,4.325266361236572,0.09355916354675337
0.40806834296804645,4.358052015304565,0.09363549162217338
0.41146839840542776,4.391189098358154,0.09370318362269435
0.41486849423279026,4.425009489059448,0.09375539086605937
0.4182685881581417,4.45918083190918,0.09379942279197988
0.4216686752334745,4.492355585098267,0.09386360167752635
0.4250687622282461,4.527880668640137,0.09387808410505381
0.42846880342104043,4.560322523117065,0.09395581151312386
0.4318688148761914,4.596492528915405,0.09395616595902435
0.43526878032359556,4.62994909286499,0.09401156937003238
0.43866873752511426,4.663105726242065,0.0940722263826155
0.44206867064472327,4.697500705718994,0.09410720686141137
0.44546859825526847,4.7311389446258545,0.0941567355068446
0.4488685289298053,4.765150308609009,0.0941981889047345
0.45226846400090015,4.799811840057373,0.09422629033630912
0.45566843467500956,4.833287715911865,0.09427711765945254
0.45906842206619747,4.870260000228882,0.09425953071183533
0.4624684505731497,4.903311252593994,0.09431757984535256
0.4658684779609186,4.937191009521484,0.09435901448059854
0.4692685230500662,4.972309112548828,0.09437637774082736
0.4726685529251738,5.005847930908203,0.09442327442803847
0.4760685721759744,5.040379762649536,0.09445093318240831
0.47946858086115074,5.073055028915405,0.09451278926175158
0.4828685837869412,5.106538534164429,0.094558883783289
0.48626858180302246,5.140653848648071,0.09459274950615575
0.4896685708476047,5.177106142044067,0.09458345210868513
0.49306854966520147,5.210665702819824,0.09462678624698002
0.49646851804346076,5.244358062744141,0.09466716652517825
0.4998684760887688,5.2801125049591064,0.09467004265899448
0.5032684610698593,5.312176942825317,0.09473864791901916
0.506668441748532,5.348912000656128,0.0947236450490083
0.5100684498645383,5.381003379821777,0.09479058343974356
0.5134684566473349,5.414801836013794,0.09482682325182451
0.5168684834978174,5.449237585067749,0.09485152288352487
0.5202685156967675,5.4823899269104,0.09489812337918924
0.5236685369518688,5.517135858535767,0.09491673766591803
0.5270685478192801,5.552097320556641,0.09493143174342583
0.5304685478625452,5.585538864135742,0.09497177636138877
0.5338685392810866,5.618841171264648,0.09501399363472794
0.5372685261659977,5.652552366256714,0.09504883658809742
0.5406685066443696,5.687959909439087,0.09505490813096942
0.5440684769335727,5.721108913421631,0.0950984302461358
0.547468439922297,5.7625415325164795,0.09500468444922767
0.5508684313188097,5.7931036949157715,0.09509037992920287
0.5542684199115017,5.826080560684204,0.0951357287525062
0.5576684360077766,5.860220909118652,0.09516167473141335
0.561068455453986,5.895835876464844,0.09516351323375098
0.564468475059589,5.929044485092163,0.09520395343277892
0.5678684824927834,5.9624621868133545,0.09524060106388389
0.5712684841577773,5.9968788623809814,0.09526096779132916
0.5746684809008745,6.0294294357299805,0.09531059066641182
0.5780684686629484,6.064639329910278,0.09531786429771091
0.5814684461942969,6.0975542068481445,0.09536093103383181
0.5848684270183292,6.131463050842285,0.09538807005254403
0.5882684281293371,6.165321350097656,0.09541569607235788
0.5916684433477373,6.199383497238159,0.09543988424192938
0.5950684499788765,6.233670473098755,0.09546036360870841
0.5984684521199383,6.275449514389038,0.09536662684445221
0.6018684493743546,6.306955337524414,0.09542931845314098
0.6052684376512492,6.340219497680664,0.09546490273288871
0.6086684200016087,6.373540878295898,0.09549925726127124
0.6120684205141784,6.4060118198394775,0.09554593992764686
0.615468418531169,6.438767194747925,0.09558792854526624
0.6188684382277568,6.472227334976196,0.09561908230314548
0.622268445268242,6.507163763046265,0.09562821344716445
0.6256684477875484,6.545677423477173,0.09558498033274344
0.6290684453972138,6.580860137939453,0.0955906115935451
0.6324684340026717,6.616445302963257,0.09559036688770221
0.6358684123434475,6.649215459823608,0.0956305922383685
0.6392683939675629,6.6826722621917725,0.09566059338033384
0.6426683958160749,6.716716051101685,0.09568193607211721
0.646068411742556,6.752107381820679,0.09568396579148394
0.6494684190406362,6.784774303436279,0.09572439553541236
0.6528684218088553,6.81779670715332,0.0957594439745992
0.6562684196581763,6.851842164993286,0.09577985071096852
0.6596684085003026,6.887664079666138,0.09577534572973519
0.6630683913820354,6.921809434890747,0.0957940835585141
0.6664683864356308,6.955428600311279,0.09581988756319115
0.6698683849495305,6.989360809326172,0.09584115103282398
0.6732684051410922,7.024193286895752,0.09584992576971556
0.676668412676355,7.057532787322998,0.09587889040938101
0.6800684156916557,7.091751337051392,0.09589569393650152
0.6834684138087896,7.125891208648682,0.0959133943806587
0.6868684029457283,7.1602277755737305,0.09592828950063552
0.6902683818501835,7.193361282348633,0.095959087102158
0.6936683640459409,7.232678174972534,0.09590753898690856
0.6970683665222954,7.267641067504883,0.09591397814609082
0.7004683744874756,7.300311326980591,0.09595047979648141
0.7038683851012341,7.3322670459747314,0.09599601060461155
0.7072683886479328,7.3657450675964355,0.09602129616993739
0.7106683872845916,7.399480104446411,0.09604301616508772
0.71406837693651,7.433008670806885,0.09606720623655547
0.717468360640592,7.466450929641724,0.09609228901408177
0.7208683565322902,7.500431299209595,0.09611025390076651
0.7242683558872586,7.536395788192749,0.09610274940999886
0.7276683769215067,7.57166314125061,0.0961041667262178
0.731068385291847,7.60498046875,0.09613021207561494
0.7344683891266812,7.638609409332275,0.09615210698289708
0.7378683880398712,7.674516677856445,0.09614525826347722
0.7412683779377098,7.70805549621582,0.0961680125813348
0.7446683575617742,7.744409561157227,0.09615560123482163
0.7480683298669555,7.776432514190674,0.09619685228436785
0.7514683303367283,7.809571266174316,0.09622401854395919
0.7548683341488254,7.843285799026489,0.09624388980477032
0.7582683454856947,7.876228332519531,0.09627302732640965
0.7616683701148435,7.91249942779541,0.09626141234705408
0.7650683831848505,7.946518898010254,0.09627717406881366
0.7684683853095972,7.980308771133423,0.0962955704282171
0.7718683788018816,8.01484203338623,0.09630487732467151
0.7752683677620243,8.048135757446289,0.09632893767289291
0.7786683503237493,8.081435441970825,0.09635272791758574
0.7820683227090264,8.115865468978882,0.0963628987811973
0.7854682970010785,8.152239561080933,0.09635000187567239
0.7888682961724417,8.187785625457764,0.09634696513299804
0.7922683033977326,8.22211742401123,0.09635818397388171
0.7956683112708698,8.25633454322815,0.09637064814960501
0.7990683333274834,8.288783550262451,0.09640357098022932
0.8024683392288559,8.322344779968262,0.09642334707886449
0.805868334595987,8.355716943740845,0.0964451452845889
0.8092683195084308,8.389288663864136,0.09646447415670151
0.8126682987963892,8.421992540359497,0.09649359043028789
0.8160682983142756,8.456374883651733,0.09650332554342378
0.8194683058980411,8.491485357284546,0.0965047069409415
0.8228683091846849,8.525594711303711,0.09651740870272428
0.8262683305415837,8.562824487686157,0.09649483435399217
0.829668336789059,8.596550941467285,0.09651176878240528
0.8330683324980188,8.630112886428833,0.09653040967842369
0.8364683177433754,8.663894891738892,0.0965464526284773
0.8398682973309103,8.697625875473022,0.09656293675488012
0.84326828214323,8.731301546096802,0.09657990595001274
0.8466682651146388,8.767056226730347,0.09657383769630525
0.8500682726481179,8.80086374282837,0.09658918686712084
0.8534682881808812,8.833975553512573,0.09661202739479219
0.8568682992357839,8.868387699127197,0.09662052768849004
0.8602683166923942,8.902559280395508,0.09663157408980215
0.863668325891125,8.936927080154419,0.09664041321418076
0.8670683247810966,8.971397638320923,0.09664807644657876
0.870468313364941,9.007593154907227,0.09663717026237142
0.8738682911931892,9.04079270362854,0.09665837054780169
0.8772682605283734,9.073681354522705,0.09668272735752462
0.8806682444041106,9.106988906860352,0.09670246152827723
0.8840682291762474,9.142836093902588,0.09669518518065065
0.8874682340152917,9.180310726165771,0.0966708274357016
0.8908682529355793,9.215184926986694,0.09667394197664651
0.8942682632539477,9.246380805969238,0.09671549139276525
0.8976682956882849,9.281041622161865,0.09672064109105762
0.9010683102832994,9.313704490661621,0.09674649986874233
0.9044683140782624,9.347069025039673,0.09676491225808868
0.9078683092610336,9.380200624465942,0.09678559613033039
0.911268299929622,9.414514064788818,0.09679398146929882
0.9146682842084947,9.451971292495728,0.0967701081503161
0.918068258312651,9.484354496002197,0.09679818048762634
0.9214682248860068,9.519702434539795,0.09679590630298443
0.9248682082758976,9.554169178009033,0.09680257812523142
0.9282681950283054,9.586796998977661,0.0968277721044157
0.9316682046426797,9.620201110839844,0.09684498212754568
0.935068215009192,9.653944253921509,0.09685867148335355
0.9384682440334173,9.68795108795166,0.09686963069007806
0.9418682554283108,9.722012281417847,0.09687996971867123
0.9452682610121981,9.757528305053711,0.09687578979633765
0.948668261641044,9.793240308761597,0.09686970111335987
0.9520682532432405,9.827032089233398,0.09688258312357977
0.9554682345631603,9.859994888305664,0.09690352230267205
0.958868206619889,9.893085956573486,0.09692306433290075
0.9622682000264298,9.92710566520691,0.09693340964416675
0.9656681926260932,9.960504293441772,0.09694972906762478
0.969068205162604,9.994844198226929,0.09695680952530658
0.9724682228528874,10.02843189239502,0.09697111505442349
0.9758682405757492,10.06507921218872,0.09695584306917143
0.9792682444800058,10.101372718811035,0.09694407599240323
0.982668239754079,10.134225845336914,0.09696529905204714
0.9860682304885441,10.167492866516113,0.0969824364210663
0.9894682148197681,10.200265407562256,0.09700416364521239
0.9928681947160506,10.234085083007812,0.09701582375590777
0.9962681826605615,10.26841425895691,0.09702259351209355
0.9996681781632116,10.303842544555664,0.09701896878183718
1.0030681988965462,10.336899518966675,0.09703762690699132
1.0064682083430845,10.370945692062378,0.09704690760394263
1.00986823206806,10.406463146209717,0.09704240700029561
1.013268239613254,10.441433429718018,0.09704302061911613
1.016668236614911,10.476149797439575,0.09704598123094707
1.0200682231553067,10.512145280838013,0.097037112397479
1.0234682040651113,10.545476198196411,0.09705282007465482
1.026868180156716,10.580188035964966,0.09705575899654231
1.0302681576712693,10.614003658294678,0.09706687418240438
1.0336681491240374,10.64857029914856,0.09707107340096986
1.037068143922347,10.681400537490845,0.09709102661980724
1.040468165146238,10.716005325317383,0.09709477865674929
1.0438681782848305,10.752216577529907,0.0970839985186233
1.0472681890905142,10.788382291793823,0.0970737002791529
1.0506681895906165,10.823703527450562,0.09707104291298832
1.0540681797647227,10.85670280456543,0.09708916221981032
1.0574681591812576,10.889697074890137,0.09710721537145478
1.0608681507614743,10.923158645629883,0.09712100548735549
1.0642681456945908,10.958232164382935,0.09712042323338753
1.0676681627538276,10.992400884628296,0.0971278407656009
1.0710681742623505,11.026318311691284,0.09713742556540285
1.0744681852717008,11.062752962112427,0.09712484667709073
1.0778681859346853,11.096705436706543,0.09713407209758215
1.0812681762874155,11.128630876541138,0.09716093455545376
1.084668155880303,11.162607908248901,0.09716978010835256
1.0880681269711672,11.196422815322876,0.09717997836613408
1.091468123082309,11.232360601425171,0.09717174882578311
1.0948681225728878,11.265289068222046,0.09718952757824671
1.0982681255407167,11.29900860786438,0.09720039727877505
1.1016681501740533,11.332710027694702,0.09721135963788129
1.105068162153276,11.366366147994995,0.0972226433465904
1.108468169600408,11.40250039100647,0.09721272804995416
1.1118681721394719,11.43641710281372,0.09722172269022236
1.1152681656832362,11.472012996673584,0.09721643150218
1.1186681489737023,11.503991842269897,0.09724173698240153
1.1220681218038397,11.537147045135498,0.09725698367318171
1.1254681037153393,11.572408437728882,0.09725444014281746
1.128868093303869,11.606098890304565,0.09726507623047191
1.1322681081898545,11.639440298080444,0.09727857003369708
1.1356681119642063,11.673404455184937,0.0972867954951891
1.1390681374352793,11.707443237304688,0.09729435491139038
1.142468143532937,11.741974353790283,0.09729778903529547
1.1458681409907108,11.776595115661621,0.09730046161363125
1.149268133888473,11.811805009841919,0.09729826499259607
1.1526681203572895,11.845075130462646,0.09731201428962725
1.1560680966085077,11.879318475723267,0.09731771220470803
1.1594680747415345,11.913626909255981,0.09732284581118752
1.1628680776823161,11.94763708114624,0.0973303817134988
1.166268088652818,11.981230974197388,0.09734125743544021
