Distance,Time,Velocity
4.1136955435383685e-08,0.12429571151733398,3.309603761320987e-07
7.089120337848713e-08,0.15533828735351562,4.56366582806172e-07
0.0011549435419076907,0.18997454643249512,0.006079464663009917
0.0034653459340610953,0.22458791732788086,0.015429796826522775
0.006863236874216563,0.2590329647064209,0.026495611792094188
0.010261368918978202,0.29328083992004395,0.03498820080362468
0.013659879057474417,0.3277747631072998,0.04167459058769189
0.01705876770440876,0.3653264045715332,0.046694592810546616
0.020458033976721513,0.3998069763183594,0.0511697773888546
0.023857674571972645,0.43381261825561523,0.05499534492082247
0.02725768426686,0.4679238796234131,0.058252389873321035
0.030658060951352702,0.5018694400787354,0.061087722230193854
0.03405880451250301,0.5396003723144531,0.06311857118707691
0.037459911394030855,0.5733225345611572,0.06533828540806283
0.040861378752836956,0.6072108745574951,0.06729355560803268
0.04426320352958119,0.6414089202880859,0.06900933574434945
0.04766537503227988,0.6759157180786133,0.07051970202405634
0.05106785441860331,0.7109220027923584,0.071833273155169
0.0544697542482232,0.7446701526641846,0.07314614941037768
0.057871606549056716,0.7822320461273193,0.0739826587718669
0.061272651869623294,0.8156294822692871,0.07512314500837722
0.06467268868908156,0.8498439788818359,0.07609948448910972
0.06807236995689882,0.8835842609405518,0.07704117531975684
0.0714711136410056,0.919435977935791,0.0777336490589199
0.07486959934801736,0.9534318447113037,0.07852643035086336
0.07826744723580956,0.9904801845550537,0.07901970019821151
0.0816657018738826,1.0238595008850098,0.0797626059076386
0.0850639474962141,1.0579936504364014,0.08040118904411847
0.08846282421734171,1.0937190055847168,0.08088258845794519
0.09186212679426031,1.1277825832366943,0.08145375550189772
0.09526186541244,1.1655330657958984,0.08173244346988069
0.09866204890734362,1.1981897354125977,0.08234259232188236
0.1020626889078552,1.2327604293823242,0.08279198981021302
0.10546379404573628,1.266582727432251,0.08326640791916018
0.10886534912800143,1.3005383014678955,0.0837079146420578
0.1122670288662904,1.3349239826202393,0.0840999415157172
0.11566871620787463,1.369483470916748,0.08446156427900853
0.11907008117239239,1.405573844909668,0.0847127894444028
0.12247107936919809,1.438755750656128,0.08512291215054853
0.1258715279911652,1.4729125499725342,0.08545757043995066
0.12927139086330872,1.5065176486968994,0.08580808261697119
0.1326707693767881,1.5412952899932861,0.08607745072481601
0.13606974444827272,1.574920892715454,0.08639782802910398
0.1394684464917633,1.6086654663085938,0.08669822869499504
0.14286711813827935,1.6461994647979736,0.08678603121512521
0.14626588798713505,1.6799960136413574,0.08706323515024698
0.14966496504007282,1.715233325958252,0.0872563299552609
0.1530644114221531,1.7493486404418945,0.08749794516860186
0.15646433840501617,1.783783197402954,0.08771488521296521
0.15986471234340485,1.8176960945129395,0.08794908721319632
0.16326543476563918,1.8533985614776611,0.08808976016225693
0.16666641969861545,1.888443946838379,0.08825595272639537
0.17006748042879888,1.922102689743042,0.08847991386533802
0.17346850321228108,1.9566364288330078,0.08865648244919087
0.17686934509133065,1.9905269145965576,0.08885554060803982
0.1802699039642026,2.02626633644104,0.08896653945346146
0.1836701023512949,2.0617849826812744,0.08908305371030435
0.1870699672679319,2.0952932834625244,0.08928104182093025
0.19046950021377868,2.1306421756744385,0.08939534868330813
0.19386880063298398,2.16418194770813,0.08958063846632265
0.19726797560761927,2.19927716255188,0.08969673262042334
0.2006671280035358,2.236044406890869,0.08974201379236268
0.2040663783361259,2.270775079727173,0.08986639855174203
0.20746582960939397,2.3048136234283447,0.0900141458296287
0.21086553386008464,2.338792085647583,0.09016001685404136
0.2142655152441928,2.3729500770568848,0.09029499495831846
0.21766576352603342,2.4078328609466553,0.09039903352779093
0.2210662348851661,2.442838430404663,0.09049564315579638
0.22446685692662863,2.4780406951904297,0.09058239332481142
0.2278675423205532,2.5144271850585938,0.09062403702704289
0.23126818448975534,2.548030138015747,0.09076352003821003
0.2346687140074584,2.582193613052368,0.09087959664266244
0.23806906302868552,2.6172873973846436,0.0909602297655882
0.24146918607974754,2.653332471847534,0.09100600420105319
0.2448690991210643,2.686716318130493,0.0911406602433756
0.2482688216316663,2.7223613262176514,0.0911961315497388
0.2516683813736211,2.7574963569641113,0.09126698598822357
0.25506786935749487,2.791351556777954,0.09137790929205589
0.2584673328236907,2.825437307357788,0.09147870035927176
0.2618668590024778,2.861506223678589,0.09151364300226358
0.2652665070319699,2.8956284523010254,0.0916093039565123
0.2686663015577311,2.929605007171631,0.09170734651942491
0.2720662871298798,2.963399887084961,0.09180883360210496
0.2754664432952066,2.9975345134735107,0.09189767192238232
0.27886673662567646,3.031674385070801,0.0919843958173509
0.28226713206677573,3.069509744644165,0.09195837627141912
0.2856675622359738,3.1022565364837646,0.09208379735086708
0.2890679770203165,3.1357386112213135,0.09218497230154325
0.2924683337242788,3.17022442817688,0.0922547726037397
0.29586856035595777,3.20398211479187,0.09234401121966854
0.29926865212978193,3.2390284538269043,0.09239457337159133
0.3026685798203024,3.276543140411377,0.09237436128562668
0.30606839903108085,3.310736656188965,0.0924472197022763
0.30946811201701524,3.345132827758789,0.09251295178743509
0.3128677839998479,3.379227876663208,0.09258558328087264
0.3162674344629706,3.4134480953216553,0.09265335977905596
0.3196671272916842,3.4478237628936768,0.09271562274499645
0.3230669126766909,3.485090494155884,0.09269971991213395
0.3264667988309266,3.5181007385253906,0.09279631912068696
0.32986679399791563,3.5530052185058594,0.09284162946899191
0.33326690783191537,3.5870041847229004,0.09290953973549952
0.33666710866156263,3.6221654415130615,0.09294636429442854
0.3400673684296387,3.656491756439209,0.09300372900629907
0.3434676391739258,3.693089485168457,0.09300279361041772
0.34686789318991906,3.7268664836883545,0.09307226183392424
0.35026809801089953,3.7611520290374756,0.09312787553034313
0.353668231683173,3.796177387237549,0.09316430598637933
0.3570682785257793,3.8302276134490967,0.09322377533700707
0.36046826294883894,3.864914655685425,0.0932668105409721
0.36386816496266766,3.9014105796813965,0.0932657964423684
0.3672679999091517,3.9348127841949463,0.09333811290447301
0.37066780330139143,3.969339609146118,0.09338273864178864
0.3740675855887216,4.003769636154175,0.09342884820617017
0.37746740074871044,4.039552450180054,0.09344287650773929
0.3808672681010123,4.077101945877075,0.09341617481166008
0.38426718704134205,4.111600160598755,0.09345927912051226
0.38766718459755184,4.1449902057647705,0.09352668289985148
0.3910672377143038,4.179018259048462,0.09357873392095385
0.3944673594437225,4.213351011276245,0.09362318933029896
0.39786750047654323,4.247530698776245,0.09367030604185456
0.4012676643761945,4.285341501235962,0.09363726654234264
0.40466781457995177,4.318342924118042,0.09370905036741593
0.4080679227831646,4.353577613830566,0.09373162924368296
0.4114679961847192,4.3876354694366455,0.09377898393130411
0.41486801484913116,4.422376394271851,0.09381110467813078
0.4182679856204517,4.460181713104248,0.09377823876358185
0.4216679182860233,4.4937262535095215,0.09383480312284444
0.42506782674373567,4.527328014373779,0.09388933724134656
0.42846770334480805,4.561631679534912,0.09392860569323587
0.4318675940857517,4.596424102783203,0.09395729907173915
0.43526748610585636,4.630726099014282,0.09399551534661257
0.4386674051056076,4.665397882461548,0.09402572216930805
0.4420673771221654,4.702393531799316,0.09400901352316496
0.4454673858567446,4.736434459686279,0.09405120869892718
0.44886744982701193,4.770358324050903,0.09409512228126328
0.45226754420630005,4.805088043212891,0.09412263420336713
0.45566765436136125,4.8398144245147705,0.09414981947516418
0.4590677580216412,4.876069068908691,0.0941470991354076
0.4624678526293462,4.911419868469238,0.09416174243182458
0.4658679047214687,4.9449756145477295,0.09421035431416931
0.4692679400846042,4.9785473346710205,0.09425800510453781
0.4726679284932948,5.012730598449707,0.09429350315364592
0.4760678999284924,5.047106504440308,0.09432491656549367
0.4794678309901973,5.081388711929321,0.09435763689256339
0.48286775237910745,5.1176536083221436,0.09435334810349129
0.48626766872969124,5.151500940322876,0.09439339609228799
0.4896676067688916,5.186678647994995,0.0944087035270985
0.4930675410015974,5.220559597015381,0.09444725835205224
0.4964675175182436,5.2556312084198,0.09446391838203493
0.49986750537591806,5.2896645069122314,0.09449890531293993
0.5032675272869654,5.326132774353027,0.09449023308437857
0.5066675718963147,5.359587907791138,0.0945348001774131
0.5100676219890696,5.394727468490601,0.09454928445751168
0.5134676856894872,5.429301023483276,0.0945734420450428
0.516867742774652,5.463498592376709,0.09460380267981477
0.5202678034134344,5.501607894897461,0.09456650007645286
0.5236678350722856,5.535379886627197,0.09460377531403098
0.5270678535391182,5.570190191268921,0.09462295459233667
0.5304678310266797,5.605309963226318,0.09463666318309215
0.5338678108924245,5.640026092529297,0.09465697536392229
0.5372677688972924,5.677389860153198,0.0946328827386173
0.5406677339241522,5.7101709842681885,0.0946850340232752
0.5440676932400526,5.745443344116211,0.09469551097344314
0.5474676731296267,5.780288457870483,0.09471286374717004
0.5508676499912245,5.815065860748291,0.09473111107985595
0.554267641321405,5.852876424789429,0.09470004167076639
0.5576676427724834,5.886303424835205,0.0947398736564614
0.5610676384149401,5.920698404312134,0.09476375929000304
0.5644676438535151,5.954625606536865,0.09479481686201298
0.5678676634032143,5.988307237625122,0.09482941353363535
0.5712676888803568,6.022916793823242,0.09484900894965313
0.574667709352583,6.061195135116577,0.09481095667472357
0.5780677472176923,6.094012260437012,0.09485831706814421
0.5814677868320994,6.129201650619507,0.09486843800828902
0.5848678292343938,6.163070917129517,0.09489876671852401
0.5882678546489484,6.197604417800903,0.09491858708492458
0.5916678635285221,6.231595277786255,0.09494645225719943
0.5950678682068767,6.26954460144043,0.09491404974934858
0.5984678518042387,6.303028345108032,0.09494925598244015
0.6018678318447703,6.336406469345093,0.09498567283468119
0.6052677988503775,6.370559930801392,0.09501014124738595
0.6086677789518704,6.4056243896484375,0.09502083511725797
0.612067763692477,6.438595533370972,0.09506230986558409
0.6154677549324961,6.472658634185791,0.09508731878456572
0.6188677564642523,6.507024765014648,0.09510763810084548
0.6222677682804599,6.545796155929565,0.09506372539828839
0.6256677908387894,6.579893112182617,0.0950878350410238
0.6290678218679807,6.615489482879639,0.09509014011676056
0.6324678458411732,6.649738788604736,0.0951116827212816
0.6358678704881557,6.688048362731934,0.09507525005821227
0.6392678673952953,6.720550298690796,0.09512135747571572
0.6426678671889501,6.75540566444397,0.09513386747024427
0.6460678423386086,6.789860248565674,0.0951518615534226
0.6494678195819359,6.824344635009766,0.09516925863475335
0.6528678034315923,6.858723163604736,0.09518795085592358
0.6562677976505644,6.8956992626190186,0.09517059440340368
0.6596678024448209,6.930649280548096,0.09518124143091143
0.663067817714531,6.966120004653931,0.09518466768754316
0.6664678386416771,7.000343084335327,0.09520502504127729
0.6698678543421653,7.034081935882568,0.09523173890326837
0.6732678718750723,7.07511043548584,0.095160051283191
0.6766678648267884,7.111422777175903,0.09515224815469452
0.6800678497785727,7.146971940994263,0.09515468304524559
0.683467839185813,7.186847925186157,0.09509980540851774
0.6868678221706661,7.22387170791626,0.09508305932647779
0.6902678133949312,7.2609779834747314,0.0950654050963813
0.6936678149052311,7.295971870422363,0.09507545084121531
0.6970678266991919,7.330243349075317,0.09509477291598026
0.700467849237166,7.364407062530518,0.0951153084409317
0.7038678802427015,7.398546934127808,0.09513596203545317
0.7072678966832381,7.432099342346191,0.09516394548891555
0.7106679122128279,7.466953277587891,0.09517508490991933
0.7140679076618435,7.504776239395142,0.0951484607780118
0.7174678890195709,7.538072109222412,0.09517922867065558
0.7208678789796004,7.582955360412598,0.09506423877198943
0.7242678468281306,7.626479625701904,0.09496751874708804
0.7276678325273995,7.666776418685913,0.09491183683847688
0.7310678290259551,7.7081029415130615,0.0948440666365115
0.7344678341503834,7.746334791183472,0.0948148839353447
0.7378678438069829,7.781208753585815,0.0948268922186352
0.7412678598695722,7.8147149085998535,0.09485539377179707
0.7446678861256972,7.848156690597534,0.0948844315274496
0.7480679196882111,7.882758855819702,0.09489925207288634
0.7514679248594627,7.919893980026245,0.09488358389072431
0.7548679295240682,7.953293323516846,0.0949126228366333
0.7582679211341989,7.987157344818115,0.09493589376026826
0.7616678988260779,8.02136492729187,0.09495489928834694
0.7650678795448073,8.055871963500977,0.09497021340596366
0.7684678632467292,8.089927196502686,0.0949907019656421
0.7718678534780242,8.123832941055298,0.09501276787429327
0.7752678540282517,8.16030478477478,0.09500476691443194
0.7786678648871657,8.195453405380249,0.09501217643138285
0.78206788650321,8.23093843460083,0.09501564040566626
0.7854679166118401,8.265550374984741,0.09502911251851032
0.7888679396763184,8.306026697158813,0.09497536769851235
0.7922679634122456,8.339651107788086,0.09500013287994463
0.795667960661702,8.376742124557495,0.09498537126135222
0.7990679545454961,8.413713693618774,0.09497208767057695
0.8024679408797116,8.449200630187988,0.09497560491256288
0.8058679077932387,8.485648155212402,0.09496833866464585
0.8092678925565837,8.521531820297241,0.094967420133198
0.8126678881183046,8.555070161819458,0.09499254509275347
0.8160678923018884,8.590833187103271,0.09499286908829584
0.8194679010061517,8.628618955612183,0.09497092237143669
0.8228679161040162,8.66383409500122,0.09497733994915565
0.8262679413805015,8.70073413848877,0.0949653130677104
0.8296679739561895,8.73642897605896,0.0949664875923316
0.8330679781181664,8.77428388595581,0.09494426997644578
0.8364679817683968,8.808027744293213,0.0949665471149714
0.839867972346793,8.843352794647217,0.09497166876064876
0.8432679489948127,8.878244161605835,0.09498138749568792
0.8466679286644639,8.912411451339722,0.09499874790197126
0.850067911312544,8.949294328689575,0.09498714424749706
0.8534679004910752,8.98594617843628,0.09497807838412788
0.8568678999954524,9.020740270614624,0.09498864553131293
0.8602679098210264,9.055654048919678,0.09499787703613244
0.8636679304069046,9.094472646713257,0.09496624641771112
0.8670679595013582,9.13008451461792,0.09496822927686159
0.8704679815714109,9.164375066757202,0.09498388872460503
0.873868004336182,9.202951908111572,0.09495518536459438
0.877268000644794,9.240786790847778,0.09493434060329735
0.880667993590512,9.275069952011108,0.0949500109591688
0.8840679790198602,9.309431314468384,0.09496476735865418
0.8874679511733716,9.347400426864624,0.09494275527373046
0.8908679348880268,9.38508152961731,0.09492383545914207
0.8942679295567747,9.423659324645996,0.09489603759528609
0.8976679328639291,9.463054656982422,0.09486027138198706
0.9010679407069804,9.498286247253418,0.0948663703378637
0.9044679549515783,9.534282207489014,0.09486481889964767
0.9078679793771127,9.569209814071655,0.0948738711990702
0.9112680113356761,9.60823917388916,0.09484235298930627
0.914668026487036,9.644729614257812,0.09483604653207504
0.9180680409155837,9.680422306060791,0.09483760231625359
0.9214680307359717,9.717900514602661,0.09482171888375707
0.9248680125512445,9.752735614776611,0.09483165022436926
0.9282679911060807,9.788140773773193,0.09483598699288488
0.931667972737945,9.82627272605896,0.09481397460780744
0.9350679608810191,9.861129999160767,0.09482361159021312
0.938467959335112,9.896770000457764,0.09482568143866173
0.941867968098059,9.93224048614502,0.09482935591540678
0.9452679876142858,9.9677152633667,0.09483296448969909
0.9486680156292963,10.003945589065552,0.09482938578416533
0.9520680366137135,10.039943218231201,0.09482802999173189
0.9554680582928042,10.076109886169434,0.09482509312490617
0.9588680535240021,10.113455295562744,0.0948111229546546
0.9622680453884797,10.14836049079895,0.09482004962879705
0.9656680297546644,10.184691905975342,0.09481563494209466
0.9690680008609718,10.221205234527588,0.0948095629258501
0.9724679835549032,10.257137537002563,0.09480890551059988
0.9758679772066221,10.29261565208435,0.09481243740107985
0.9792679795204612,10.32796049118042,0.09481716940694233
0.9826679863974895,10.361717462539673,0.09483640042783371
0.9860679997005372,10.395532131195068,0.09485498070286653
0.9894680232095872,10.43331503868103,0.09483735701847212
0.9928680542725455,10.466606378555298,0.09486055158306152
0.9962680685458607,10.500221490859985,0.09488067174707424
0.9996680821178286,10.534236669540405,0.09489705931976587
1.0030680710971729,10.568388223648071,0.09491211430449578
1.0064680520836045,10.603423357009888,0.09491916131201455
1.009868037524294,10.641164779663086,0.09490202044933167
1.0132680165551358,10.675043106079102,0.09491933723228822
1.0166680038299325,10.709194898605347,0.09493412095453904
1.0200680013998022,10.744190216064453,0.09494135722528639
1.0234680092660817,10.778283834457397,0.09495649075357694
1.0268680278861382,10.816687107086182,0.09493369066887594
1.0302680549915275,10.850259065628052,0.09495331390337562
1.0336680865008834,10.885185241699219,0.09496100098885629
1.0370681037120169,10.920929193496704,0.09496152619775063
1.0404681066945916,10.954381465911865,0.0949819129388864
1.0438681104523515,10.991090536117554,0.09497402528185188
1.0472680942779045,11.027168989181519,0.09497161921662334
1.050668064103856,11.063886404037476,0.09496374291410314
1.05406804568976,11.099814414978027,0.0949626729134684
1.057468038217662,11.137404441833496,0.09494743984026284
1.0608680394111425,11.173958539962769,0.09494111112163454
1.0642680451766122,11.20944333076477,0.09494388024208887
1.0676680573790092,11.243921279907227,0.09495513449448648
1.0710680798039312,11.281593561172485,0.09493943156135258
1.0744681097989226,11.314578533172607,0.09496315807511053
1.0778681230137315,11.35139012336731,0.09495472460195822
1.0812681355559186,11.387347936630249,0.09495346428098062
1.084668123536517,11.422385454177856,0.09495985999490048
1.0880681035336541,11.456859350204468,0.0949708877690146
1.0914680880150363,11.491271018981934,0.09498236411029619
1.0948680661134076,11.525624513626099,0.09499425083812219
1.0982680524777773,11.560110092163086,0.0950049821084596
1.1016680491580315,11.594645738601685,0.09501524013711632
1.1050680561506896,11.629223585128784,0.09502509329718523
1.1084680739098183,11.664804220199585,0.09502671909317757
1.1118681001656807,11.698786497116089,0.09504131906670589
1.1152681308296457,11.732573509216309,0.09505741685347782
1.118668147193301,11.766823291778564,0.09506968188898617
1.1220681493291245,11.80066990852356,0.09508512296565984
1.1254681522321583,11.83514404296875,0.09509543340968445
1.1288681351863012,11.87234878540039,0.095083808233
1.1322681129910739,11.906166791915894,0.09509929877346139
1.1356680907580972,11.940279006958008,0.0951123579353803
1.1390680823441919,11.974331855773926,0.09512581545791572
1.1424680825669096,12.007986307144165,0.09514235387553673
1.1458680873423859,12.041869878768921,0.09515698964349975
1.1492680985401573,12.077860116958618,0.09515494362502684
1.1526681199475597,12.111954927444458,0.09516780130478615
1.1560681489167242,12.144885301589966,0.09518971321741307
1.1594681610982773,12.179493188858032,0.09519839151919512
1.162868172605379,12.213762044906616,0.0952096633559615
1.166268159556071,12.247703790664673,0.09522341326094225
1.1696681385215604,12.282501935958862,0.0952304460947962
1.1730681263604041,12.319866180419922,0.09521760294967914
