Distance,Time,Velocity
0.0,0.03290438652038574,0.0
1.88819160253817e-06,0.06884360313415527,2.7427262905729353e-05
3.2788950353932037e-06,0.10283923149108887,3.188369834985906e-05
0.001151489831025798,0.13765954971313477,0.008364765346286242
0.0034624212659450397,0.17186522483825684,0.02014614224141935
0.006861465202415306,0.20665597915649414,0.03320235509478935
0.010261806076645136,0.24062013626098633,0.04264732883998855
0.013663247356407329,0.276533842086792,0.04940895209534256
0.017065688061071494,0.3097846508026123,0.05508887550385884
0.020468676610578652,0.3443117141723633,0.059448098243709425
0.02387160515988108,0.3779611587524414,0.06315888447023364
0.02727425724167489,0.4128592014312744,0.06606188537671488
0.03067624983979875,0.44732141494750977,0.0685776464410907
0.03407759969345263,0.48108553886413574,0.0708348036690343
0.03747830022367764,0.5164649486541748,0.07256697733571292
0.04087835505023888,0.5490579605102539,0.07445180288844107
0.044277765431925194,0.5826115608215332,0.07599877587305284
0.04767654076167269,0.6170096397399902,0.07727033370461396
0.051074684985259126,0.6512143611907959,0.07842991191389746
0.05447229743200493,0.6849932670593262,0.07952238372481282
0.057869779484348266,0.7190759181976318,0.0804779829498382
0.061267483448711524,0.7551381587982178,0.08113413781951781
0.06466563418526815,0.7878293991088867,0.08208075791333937
0.06806453797959126,0.8226840496063232,0.08273472423849958
0.07146431519615487,0.8557631969451904,0.08350945150628157
0.07486491285678518,0.8900880813598633,0.08410955547501285
0.07826610042181123,0.9245650768280029,0.08465180265117357
0.08166796829129577,0.9583940505981445,0.08521335064666342
0.08506978363728436,0.9937574863433838,0.08560416883027061
0.08847163442778194,1.0284185409545898,0.08602687612541637
0.091873149741053,1.0624208450317383,0.08647528911982937
0.0952740484370251,1.0943524837493896,0.08705974523912459
0.09867430089647146,1.1293482780456543,0.08737278199708957
0.10207390622862586,1.163123369216919,0.08775845188060132
0.10547291218758972,1.197019100189209,0.088112973444549
0.10887155076352167,1.2313232421875,0.08841833487208978
0.11227010163860411,1.2669520378112793,0.08861432657905198
0.11566847401778697,1.3011736869812012,0.08889549118238363
0.11906741216338898,1.3334996700286865,0.08928942004224687
0.12246651981190279,1.3672144412994385,0.0895737465261903
0.1258663133640728,1.4014930725097656,0.08980873029837667
0.12926644981704105,1.4361402988433838,0.09000962504927106
0.1326671149108928,1.4714045524597168,0.09016358872148106
0.13606798126955327,1.5049197673797607,0.09041543889510027
0.13946927925739314,1.5413637161254883,0.09048434045662875
0.1428702863543329,1.574580430984497,0.09073546421823883
0.14627135276581946,1.608466386795044,0.0909383957082703
0.14967195966183527,1.6428861618041992,0.09110306188072533
0.15307224131017522,1.6764423847198486,0.0913077852870889
0.1564720398808082,1.7101705074310303,0.09149499374530559
0.15987158309617522,1.7465651035308838,0.0915348547689269
0.1632707975033465,1.7793874740600586,0.09175674207192701
0.16666996329644715,1.8132548332214355,0.09191756185772336
0.17006894566420447,1.8473987579345703,0.0920586012812659
0.17346812835542572,1.880918025970459,0.09222524637453293
0.17686763524803026,1.9147355556488037,0.09237183418161317
0.18026713825572108,1.9493417739868164,0.09247590169220897
0.18366734338815846,1.9840378761291504,0.09257249853843147
0.18706743803161288,2.0184900760650635,0.09267691738979994
0.19046817885911566,2.0528101921081543,0.09278411593597576
0.19386868660483728,2.086374521255493,0.09292132578774744
0.197269505567002,2.120328187942505,0.09303725087880178
0.20066998078505544,2.1551833152770996,0.09311040010499273
0.20407043615435794,2.1888203620910645,0.09323306731275179
0.2074708298013927,2.2226192951202393,0.0933451942295718
0.21087071826299356,2.2562050819396973,0.09346256683444062
0.21427034593455682,2.2917866706848145,0.09349489142046985
0.21766985471515257,2.325134038925171,0.09361604581548073
0.22106936228339275,2.3594048023223877,0.09369708922597418
0.22446864642862666,2.393477201461792,0.09378349051811928
0.22786834827457816,2.428358554840088,0.09383636852984577
0.2312678389524636,2.46205735206604,0.09393275861685138
0.23466760110124524,2.4964773654937744,0.09399949078041438
0.23806774825896537,2.5318984985351562,0.09402736657757045
0.24146779529962037,2.5654873847961426,0.09412160696272835
0.24486817345617565,2.5993564128875732,0.09420338520801634
0.24826874579522487,2.633178234100342,0.09428482378445946
0.251669157036646,2.6677186489105225,0.09433871789269303
0.2550696847720117,2.7013111114501953,0.09442440142893348
0.25847015758730973,2.7350013256073,0.09450458219793262
0.26187043403703747,2.7716963291168213,0.09448020379652498
0.265270567395102,2.8041086196899414,0.09460067471438884
0.268670526547428,2.8381800651550293,0.09466296019972661
0.2720703162737332,2.872589588165283,0.0947125608874409
0.27546999699319435,2.9073495864868164,0.09474952660442422
0.27886960259108756,2.940958023071289,0.094822707567876
0.2822692092116281,2.9752516746520996,0.09487238058428596
0.2856688643363499,3.0119338035583496,0.0948456649342213
0.2890686246254882,3.043954849243164,0.09496482009165182
0.2924684610535851,3.077753782272339,0.09502659463475745
0.295868441020906,3.11148738861084,0.095089069653276
0.29926853970760914,3.1450788974761963,0.09515454125737847
0.3026687547835133,3.1796622276306152,0.09518896446087376
0.3060690502499928,3.2131552696228027,0.0952549828959628
0.30946936519890167,3.2479093074798584,0.09528263750659571
0.3128696857884645,3.284066915512085,0.09526897406098643
0.3162699293198998,3.3179304599761963,0.09532144604446255
0.31967009760283643,3.3512110710144043,0.09538942514476505
0.32307016136696004,3.385359048843384,0.09543157954762221
0.3264701208533906,3.4190235137939453,0.09548636314908539
0.32986998147692587,3.453198194503784,0.09552593361190707
0.33326978016613007,3.487701892852783,0.09555569552807462
0.33666954892318285,3.52388858795166,0.09553921485323678
0.34006930452064615,3.556870460510254,0.09560913401154936
0.3434690973977372,3.590087890625,0.09567150105005995
0.34686893240394834,3.6249217987060547,0.09569004565223063
0.35026884460883406,3.658576488494873,0.09573910664716855
0.35366882744816297,3.69295072555542,0.09576862886383927
0.35706888098265605,3.726604700088501,0.09581614088936673
0.3604690113798751,3.7609457969665527,0.0958453088238115
0.3638691789825627,3.7966747283935547,0.09583891299967187
0.3672693816387741,3.8301374912261963,0.09588934665663788
0.3706695775547341,3.86432147026062,0.09592099943220696
0.3740697280565347,3.898019552230835,0.0959640461121994
0.3774698318476525,3.932529926300049,0.09598651222542581
0.38086986237468806,3.9668402671813965,0.09601341035224284
0.3842698316954974,4.001349449157715,0.09603505931639794
0.38766973406395505,4.036585569381714,0.09603902293178307
0.39106958647671,4.0693323612213135,0.09610165790423167
0.3944694298561774,4.102979421615601,0.09614219066710551
0.3978692815423616,4.137130975723267,0.09617033733692824
0.40126915495276266,4.171094179153442,0.0962023722595982
0.40466907059290763,4.204817056655884,0.09623939998824667
0.4080690268856683,4.238674640655518,0.09627278842580846
0.4114690455074491,4.272866249084473,0.09629813373999542
0.4148690912464041,4.308154344558716,0.09629856733670462
0.41826918195379875,4.341452360153198,0.09634314677566545
0.42166928654901764,4.375263929367065,0.0963757371798179
0.42506940265026366,4.4100377559661865,0.09638679443848346
0.42846949419686686,4.444068193435669,0.09641379824678635
0.4318695836863128,4.478596210479736,0.09642967648562628
0.43526962930484625,4.513047933578491,0.09644693247468164
0.43866962932488446,4.54870343208313,0.09643838862539138
0.4420695738067545,4.5830302238464355,0.09645792242577342
0.4454695093464488,4.6171770095825195,0.0964809251241437
0.44886942087741066,4.650642395019531,0.0965177243810692
0.45226933273631964,4.684632301330566,0.09654318709450527
0.4556692531444847,4.718603610992432,0.09656866537442566
0.4590691883901316,4.754492282867432,0.0965548287972543
0.4624691698351761,4.788052797317505,0.09658815167916973
0.465869166717021,4.821146726608276,0.09663036475240497
0.469269208707405,4.855705738067627,0.09664284329020215
0.472669264808827,4.889892578125,0.09666250480088648
0.4760693279176902,4.924215316772461,0.09667922649445114
0.4794693835239468,4.958554267883301,0.0966953990257773
0.4828694361091303,4.994582176208496,0.09667864479420533
0.48626947859176384,5.028654336929321,0.09669972243284028
0.4896694991816868,5.062206268310547,0.09673045174927421
0.4930694963894731,5.09606671333313,0.0967549139612767
0.4964694698895719,5.130553960800171,0.09676722507605039
0.4998694338242697,5.164602994918823,0.09678758160425197
0.5032693852455072,5.198056936264038,0.0968187519714277
0.5066693408314383,5.2320568561553955,0.09683941798823409
0.510069285044308,5.267752170562744,0.09682864123613816
0.5134692406976747,5.301305055618286,0.09685713900834732
0.5168691968842833,5.335330486297607,0.09687669736893073
0.5202691947606409,5.369070529937744,0.09690116601367753
0.5236691993024276,5.403330326080322,0.09691600692536359
0.5270692333091848,5.437325954437256,0.09693537553676687
0.530469262137212,5.472455739974976,0.09693440885455891
0.5338693033921065,5.508054733276367,0.09692519941147061
0.5372693285147142,5.540808439254761,0.09696587319430537
0.5406693427872634,5.574923515319824,0.09698237855667624
0.5440693516925077,5.608985185623169,0.09699960575525403
0.547469347466351,5.643811464309692,0.09700347910776876
0.5508693490635779,5.677645921707153,0.0970242520685303
0.55426934088827,5.71129846572876,0.09704786822370093
0.5576693186443359,5.747333526611328,0.0970309650661847
0.5610692961625381,5.781180143356323,0.09705099689849893
0.564469261221854,5.815359354019165,0.09706524169168201
0.5678692219532192,5.84937858581543,0.09708197437079646
0.5712691970180961,5.883318185806274,0.09709983022783035
0.574669184428544,5.9166693687438965,0.09712714174369114
0.5780691840852926,5.950520277023315,0.0971459901275163
0.5814691880859658,5.985968351364136,0.09713870070052333
0.5848692121452774,6.020653247833252,0.09714381281728252
0.5882692415604408,6.054123640060425,0.0971683560718574
0.5916692600385691,6.088117837905884,0.09718426544813467
0.5950692681378119,6.122828483581543,0.09718862282905673
0.5984692654226194,6.156152725219727,0.09721481778236077
0.601869254093805,6.190579891204834,0.09722340470056787
0.6052692382443388,6.223946809768677,0.09724845933682306
0.6086692160018353,6.259871244430542,0.09723350405064213
0.6120691908425152,6.292501926422119,0.09726960722450415
0.6154691855750638,6.326823949813843,0.09727932853152538
0.6188691807837662,6.360851049423218,0.09729345585601841
0.622269200581643,6.395129442214966,0.09730361303931932
0.6256692183041526,6.429229259490967,0.097316364536313
0.6290692294630345,6.463775634765625,0.09732225637281798
0.6324692302921241,6.499754190444946,0.09730663833747655
0.6358692205780989,6.532670021057129,0.09733680386862727
0.6392692004184762,6.566331386566162,0.09735561042903434
0.6426691862723444,6.600508213043213,0.09736662170988149
0.6460691753926653,6.633937120437622,0.09738849851354123
0.6494691897618736,6.668050289154053,0.09740016370576429
0.6528691928524277,6.701900005340576,0.09741553773290748
0.6562692102587586,6.735676288604736,0.09743182156319179
0.6596692115105365,6.772239685058594,0.09740783583988419
0.6630692022445924,6.805694818496704,0.09742858296297459
0.6664691825443401,6.840239763259888,0.0974335996413549
0.6698691688616948,6.875332832336426,0.0974307986532857
0.67326915844209,6.908775329589844,0.09745130306358657
0.6766691732614456,6.94206976890564,0.09747369239824234
0.6800691768037499,6.976522922515869,0.09747967352173535
0.6834691946377864,7.012079477310181,0.09747025783854404
0.6868691962977975,7.04616641998291,0.09748126220093783
0.690269187424656,7.080131769180298,0.09749383343815533
0.6936691681050262,7.1139748096466064,0.09750795956775181
0.6970691547705841,7.14812707901001,0.09751773395544133
0.7004691446718189,7.183520793914795,0.09751056129261722
0.703869159782894,7.219961404800415,0.09748932443252463
0.707269163604376,7.252996206283569,0.09751406777128045
0.710669181689909,7.2869768142700195,0.09752592876351851
0.7140691835864622,7.322360038757324,0.09751899384991819
0.7174691749391642,7.35574197769165,0.09753865444371086
0.7208691558339212,7.389230966567993,0.09755672262721767
0.7242691310931573,7.423388481140137,0.09756583976889202
0.727669126579719,7.458956003189087,0.0975564309896188
0.731069130131507,7.492543697357178,0.09757288841563577
0.7344691343167878,7.5264763832092285,0.09758472582938155
0.7378691598697948,7.560483694076538,0.09759549649553481
0.7412691730070848,7.5941314697265625,0.09761079011630218
0.7446691843214431,7.629296779632568,0.09760652991104468
0.7480691891722152,7.662561416625977,0.09762651788331236
0.7514691837512165,7.696548223495483,0.09763716953753164
0.7548691680697562,7.732297897338867,0.09762546374856439
0.7582691416596593,7.764818906784058,0.09765445282917878
0.7616691068074287,7.799950838088989,0.09765050096059835
0.7650690970274923,7.834322452545166,0.09765606428146717
0.7684690906572739,7.868307590484619,0.09766637638653154
0.771869087796517,7.9027674198150635,0.0976707331486392
0.7752691113125958,7.939407587051392,0.0976482316611386
0.7786691265396813,7.972034692764282,0.097675080020215
0.7820691530347854,8.005872249603271,0.09768693886834637
0.7854691634401695,8.039386749267578,0.09770262184634033
0.788869163047391,8.074224948883057,0.09770215321490625
0.7922691540449726,8.108628749847412,0.09770692166167817
0.7956691405233354,8.14357590675354,0.09770512974079112
0.7990691206065476,8.176401376724243,0.09772870530564426
0.8024690962533294,8.212278366088867,0.09771576905709649
0.805869079959785,8.244492292404175,0.09774635615855318
0.8092690712020375,8.278855800628662,0.09775131862311033
0.8126690876576139,8.313122987747192,0.09775737576063968
0.8160691045838842,8.348173379898071,0.0977542113043474
0.8194691181844367,8.382099628448486,0.09776418254481177
0.8228691213723739,8.415884733200073,0.09777571193747618
0.8262691140029195,8.45230221748352,0.09775669311655567
0.8296690961697927,8.484285116195679,0.09778892208443522
0.8330690726995035,8.51900601387024,0.09778946878815911
0.8364690694561934,8.553512334823608,0.09779246661639883
0.839869074274735,8.587848901748657,0.09779737439298926
0.8432690748039632,8.62193751335144,0.0978050552440359
0.8466690934167797,8.656542301177979,0.09780684526910534
0.8500690969418961,8.69203782081604,0.09779859619410729
0.8534690899476144,8.725576639175415,0.09781234240907075
0.8568690725049762,8.759782314300537,0.0978185349544724
0.8602690494528741,8.794045448303223,0.0978240395174282
0.8636690466482436,8.828340291976929,0.09782915226241719
0.8670690519173653,8.862117052078247,0.09783994578519245
0.8704690578358756,8.89597225189209,0.09784979462483541
0.8738690779493479,8.9326810836792,0.09782830818240945
0.8772690819087853,8.965166568756104,0.09785307112598404
0.8806690753372209,8.999666452407837,0.09785574609841238
0.8840690583182297,9.033299922943115,0.09786778540064166
0.8874690356755845,9.06721568107605,0.09787668749600807
0.890869033260515,9.101213455200195,0.09788464336604431
0.8942690389168639,9.135475158691406,0.09788971272786667
0.8976690402698592,9.172111988067627,0.09786939381438793
0.9010690596896918,9.204998970031738,0.0978890994581594
0.9044690639964581,9.238489389419556,0.09790226798683209
0.9078690577639558,9.272032976150513,0.09791477878682842
0.9112690410676604,9.306244373321533,0.09792017107137445
0.9146690187148804,9.340126037597656,0.09792898029780114
0.9180690165680588,9.37416696548462,0.09793606407357149
0.9214690224780433,9.408318042755127,0.09794195076001075
0.9248690240715849,9.443929195404053,0.09793265122335713
0.9282690437221917,9.478007793426514,0.097939257273664
0.9316690482597636,9.511144876480103,0.09795551012619597
0.9350690422582898,9.54520845413208,0.0979621395123647
0.9384690257896768,9.579271078109741,0.09796873041146499
0.9418690036811196,9.613384246826172,0.09797475888806531
0.9452690017981986,9.64722490310669,0.09798351456425508
0.9486690079733975,9.684156656265259,0.09796093161707033
0.9520690098601161,9.717784643173218,0.0979718160896834
0.9554690298284182,9.750847101211548,0.09798831013458315
0.9588690347070534,9.786153554916382,0.09798221837887833
0.9622690290631046,9.819983005523682,0.09799090574004396
0.9656690129675498,9.853657245635986,0.09800107603653738
0.9690689912578084,9.888306140899658,0.09800151587637239
0.9724689809103035,9.92330288887024,0.09799851841678678
0.9758689743018274,9.95796799659729,0.09799880604509764
0.979268980786746,9.990408182144165,0.09802091795778588
0.9826690012419845,10.024617910385132,0.098025581625807
0.9860690186896495,10.059820890426636,0.0980205343047445
0.9894690331965206,10.093894243240356,0.09802649100065068
0.9928690412000647,10.12691593170166,0.0980425874862802
0.9962690389062815,10.163283586502075,0.09802629538247197
0.9996690263170555,10.195950269699097,0.09804569460170168
1.0030690029857963,10.22899866104126,0.09806130944235444
1.0064689711701307,10.262909889221191,0.09806857723920903
1.009868953888322,10.29712724685669,0.09807288282240036
1.0132689375016237,10.33122444152832,0.09807830071221729
1.0166689411570864,10.36603045463562,0.09807697802994962
1.0200689588860903,10.400011539459229,0.09808344490924777
1.0234689679860536,10.433793544769287,0.09809174041968113
1.026868999169538,10.468554735183716,0.0980908086307596
1.030269012485791,10.501970529556274,0.09810244749651964
1.0336690149928855,10.536209344863892,0.0981063474689567
1.0370690088592869,10.57056188583374,0.0981091658191914
1.0404689981874111,10.605370044708252,0.09810775048877927
1.0438689811111728,10.6389741897583,0.0981174465218707
1.0472689538515687,10.675512075424194,0.09810011421020806
1.0506689284928696,10.709312915802002,0.09810796796707354
1.0540689280033322,10.742336988449097,0.09812286927292822
1.0574689355617424,10.776143074035645,0.09813055824301731
1.0608689437586993,10.811047315597534,0.09812823057652711
1.0642689661321512,10.845312118530273,0.09813170469421012
1.0676689723460522,10.87965440750122,0.09813445651453083
1.0710689680232564,10.913863182067871,0.09813839060976012
1.0744689532436666,10.948232412338257,0.09814086080532776
1.0778689328415703,10.981900453567505,0.09814958143163838
1.0812689237936304,11.016127109527588,0.09815327229280665
1.084668918480744,11.050120830535889,0.09815900976244274
1.0880689263421395,11.084163427352905,0.09816428036932956
1.0914689418943213,11.117947578430176,0.09817180142240191
1.0948689486828531,11.151342153549194,0.09818270604622993
1.0982689448232468,11.186800479888916,0.09817542976632694
1.1016689305055465,11.220252513885498,0.09818575198215801
1.105068910532542,11.253173351287842,0.09820064758942641
1.1084689018841645,11.287264823913574,0.09820527108885807
1.111868896961433,11.321565389633179,0.09820805327676138
1.1152689050887479,11.355989694595337,0.09820974966361043
1.1186689271458865,11.390355587005615,0.09821194067216744
1.1220689340761292,11.42785906791687,0.09818715188974288
1.1254689304559677,11.46043848991394,0.09820470058335605
1.1288689163568073,11.493153810501099,0.09822098746519681
1.1322688965871912,11.527193307876587,0.09822589648197419
1.135668888137276,11.561555862426758,0.09822803277091985
1.139068883403424,11.595209836959839,0.09823615953655546
1.142468891815267,11.629202127456665,0.09824138228003504
1.1458689078968665,11.663578748703003,0.09824333787983279
1.1492689152068933,11.70022201538086,0.09822624850161725
1.1526689118604176,11.732911825180054,0.09824235697285902
1.1560688980451217,11.767000436782837,0.09824669458083213
1.1594688785872804,11.801372051239014,0.09824865054276033
1.1628688704745973,11.835086822509766,0.09825604897658011
1.1662688660874205,11.86932635307312,0.09825906133126575
1.1696688748785082,11.90402865409851,0.09825823751489339
