Distance,Time,Velocity
0.0,0.2794041633605957,0.0
3.1999936971711895e-07,0.31293678283691406,1.0225687335831196e-06
0.00115625296592591,0.3470792770385742,0.0033313800114819435
0.003467623923038818,0.3812234401702881,0.00909604068808012
0.006866478996077762,0.41525864601135254,0.016535426924958095
0.010265618090045343,0.44939613342285156,0.022843138439702787
0.013665129678118688,0.48471713066101074,0.028191967672946683
0.017065014844717556,0.5190987586975098,0.03287431256344366
0.020465268149591105,0.55208420753479,0.037069106252783854
0.023865890657952138,0.585993766784668,0.04072720907750203
0.02726687987492735,0.6205573081970215,0.04393934212804461
0.030668233656693394,0.6546523571014404,0.04684659472163369
0.034069949591121494,0.6866855621337891,0.049615066152335296
0.0374720250823571,0.7236204147338867,0.05178409055269334
0.04087445766210663,0.7570359706878662,0.053992754961124025
0.044277185647197834,0.7903416156768799,0.05602284476602829
0.04767995415041887,0.8242194652557373,0.05784861455028221
0.05108233732161584,0.8587744235992432,0.059482834977225625
0.054484046440991,0.8925650119781494,0.061042104171482814
0.05788495713153912,0.9284939765930176,0.06234284614741401
0.061285019085446805,0.9631667137145996,0.06362867218395844
0.06468418570605931,0.9964823722839355,0.06491252379889399
0.06808270102271814,1.0304079055786133,0.06607354296693513
0.07148052869371453,1.066908359527588,0.06699781481266592
0.07487834558278902,1.1025047302246094,0.0679165753488734
0.07827610879725766,1.1346664428710938,0.06898600843362597
0.08167429485561697,1.1677196025848389,0.06994341336295505
0.08507286953306807,1.2021214962005615,0.07076894457170121
0.08847182326790852,1.2344813346862793,0.07166720207267614
0.09187115264816008,1.2686183452606201,0.07241827535552973
0.09527085536096992,1.3035862445831299,0.07308366113623446
0.09867092581595653,1.3384218215942383,0.07372184480556836
0.10207136232330795,1.3755824565887451,0.07420228560956706
0.10547216364468749,1.4103918075561523,0.07478217264140503
0.10887332647284102,1.4431989192962646,0.07543889135250326
0.11227484685780648,1.4774315357208252,0.07599326543617374
0.11567666263038491,1.5089845657348633,0.07665861219332705
0.11907857534985762,1.5424582958221436,0.07720051535421754
0.12248028924279708,1.5758888721466064,0.07772139990807843
0.1258815345604683,1.6097333431243896,0.0782002404920931
0.1292820339624802,1.6442608833312988,0.07862622973828383
0.1326822083445322,1.6798312664031982,0.07898543800094111
0.1360817770054259,1.7146353721618652,0.07936484876889585
0.1394807961346427,1.748671054840088,0.07976388455025803
0.14287915151848957,1.7830610275268555,0.0801313860337501
0.14627754030166698,1.8164963722229004,0.08052729558862967
0.14967621843134185,1.850947618484497,0.08086464302749553
0.15307500262419368,1.8847858905792236,0.08121612295025797
0.1564741933741809,1.9187970161437988,0.08154806999264917
0.1598738527913436,1.954547643661499,0.08179583307155831
0.16327396395968707,1.9875049591064453,0.08215021714114001
0.16667453361658346,2.021021842956543,0.08247042662970733
0.17007553381396595,2.055020809173584,0.08276097889362052
0.17347679735033192,2.0910050868988037,0.08296335500915379
0.17687814980984745,2.1268246173858643,0.08316536698134189
0.18027944813217686,2.16206955909729,0.08338281595687762
0.18368041550473108,2.1949455738067627,0.08368335766347426
0.18708107297965562,2.22788667678833,0.0839724367171796
0.19048131107711017,2.2611916065216064,0.08423934996385724
0.1938810644399041,2.2947959899902344,0.08448727698915369
0.1972805008045607,2.328354597091675,0.08472957729504856
0.20067958191111757,2.3627092838287354,0.08493621423703862
0.20407853868656545,2.39691162109375,0.08514228763822383
0.207477527361817,2.434784173965454,0.08521392966995718
0.21087662630471668,2.468541383743286,0.08542559897656819
0.21427596302840682,2.5008671283721924,0.08568066675652555
0.21767562854072672,2.534984827041626,0.08586861200063205
0.22107570498358903,2.568466901779175,0.0860730207698803
0.2244760766763657,2.602207660675049,0.08626370603264365
0.2278767120151595,2.6357455253601074,0.08645626439374338
0.23127748384979782,2.6704092025756836,0.08660750705424633
0.23467834715876718,2.7051498889923096,0.08675243767959445
0.2380791144619314,2.739551544189453,0.08690441140517817
0.24147970504592725,2.776113986968994,0.08698479463718947
0.2448800755461185,2.809018850326538,0.08717637317302164
0.2482801564979932,2.843395948410034,0.08731817903757869
0.2516799911277666,2.8771533966064453,0.08747534678707747
0.255079577747725,2.9104809761047363,0.08764172651941282
0.25847901449250643,2.945781707763672,0.08774547476185332
0.2618783583098667,2.9794535636901855,0.08789476080490369
0.2652777270638758,3.0127251148223877,0.08805241665053634
0.2686771831615682,3.0470845699310303,0.08817516448768917
0.2720768022564174,3.0815560817718506,0.08829201709675753
0.2754766373046566,3.11698842048645,0.08837910192225372
0.2788766981305078,3.1510064601898193,0.08850400710181598
0.2822769479550376,3.186955451965332,0.08857260548808833
0.2856773289505535,3.2203750610351562,0.08870933463840869
0.28907781670013666,3.2533438205718994,0.0888555998515153
0.2924783204637968,3.2865407466888428,0.0889927565202001
0.2958787892921663,3.320878028869629,0.08909655420041984
0.299279144681094,3.3549323081970215,0.08920571778747155
0.302679351113281,3.3890528678894043,0.08931089685295472
0.3060794106129549,3.4227781295776367,0.08942426269701695
0.3094792992767931,3.4594709873199463,0.08945856184692182
0.3128790506883644,3.493854284286499,0.08955125921980439
0.31627872298809817,3.5278031826019287,0.08965316561532977
0.31967833143627916,3.560939073562622,0.08977360320755214
0.32307795709427795,3.593655586242676,0.08990231516094453
0.32647763272088487,3.627910614013672,0.08999053930926164
0.32987739910092306,3.6626169681549072,0.09006603801846723
0.3332772851448846,3.6959261894226074,0.09017422644929782
0.33667729632809035,3.731034755706787,0.0902369767028107
0.340077417831268,3.7641711235046387,0.09034589732324344
0.3434776503557159,3.8002939224243164,0.09038186449973366
0.34687795250728626,3.834563970565796,0.09046085947970348
0.3502782734014906,3.866678476333618,0.09058893195940725
0.3536785719364605,3.9070167541503906,0.09052394555532704
0.3570787924822504,3.9389047622680664,0.09065433516007133
0.36047894375089035,3.9714090824127197,0.09076852479067489
0.36387897651227674,4.004897594451904,0.09085849711023034
0.3672789082694158,4.039515256881714,0.09092153016224405
0.3706787736611503,4.072333097457886,0.09102368710765407
0.3740785605775578,4.108778715133667,0.09104373501540305
0.37747833087883736,4.14462685585022,0.09107655381473474
0.38087809930302907,4.176614284515381,0.09119302702074222
0.3842779085579732,4.210937261581421,0.09125709662405593
0.38767778509812023,4.244689226150513,0.09133243081960637
0.39107772049981554,4.277590990066528,0.09142475786207255
0.39447774993604395,4.310722827911377,0.09151081284601532
0.3978778448856424,4.34507417678833,0.09156986249190677
0.4012780054769799,4.379135847091675,0.09163406194477423
0.4046781815821569,4.413132905960083,0.09169861642635452
0.40807836516604096,4.4491705894470215,0.09172009860308822
0.41147850183349655,4.484529972076416,0.09175510129169118
0.4148786160478248,4.517193794250488,0.09184432524809646
0.4182786617551831,4.550169229507446,0.09192595718037976
0.42167867158360267,4.584337949752808,0.09198245770828044
0.42507861531805163,4.617662191390991,0.09205493985908138
0.4284785299602709,4.649562120437622,0.09215459840333137
0.4318784182649976,4.686817407608032,0.09214748105269402
0.43527828222944065,4.718374013900757,0.09225175472463001
0.43867816842663343,4.750986814498901,0.09233411616464399
0.44207805863542127,4.788617134094238,0.09231852249951067
0.4454779928855777,4.824374437332153,0.09233901693831295
0.44887797286916303,4.8563072681427,0.09243195458693389
0.45227800847087807,4.890980005264282,0.09247185798839498
0.4556780732623921,4.9254209995269775,0.09251555822459726
0.4590781776144099,4.958576917648315,0.09258264724713297
0.46247827211423803,4.992468595504761,0.09263518903867625
0.46587837713993696,5.028964996337891,0.09263901766649622
0.4692784556365693,5.060970067977905,0.09272500120200632
0.4726785062338072,5.094645023345947,0.09277947807311057
0.4760785301973175,5.128124237060547,0.09283677777475353
0.479478512501069,5.163915634155273,0.09285173238108164
0.48287847827247093,5.196515083312988,0.09292352096178587
0.4862784032306345,5.229827642440796,0.09298172645010631
0.4896783315928828,5.263650894165039,0.09303016887683609
0.4930782607382476,5.301496505737305,0.09300737257954164
0.4964782030622754,5.336089134216309,0.0930415873075912
0.49987815223682036,5.3701746463775635,0.09308415184858314
0.503278138613571,5.405688524246216,0.09310157926343887
0.5066781457664605,5.43958854675293,0.09314641013958923
0.5100781767107477,5.475578308105469,0.09315512408172152
0.5134782171891684,5.50832724571228,0.09321853882026769
0.5168782701195066,5.542069435119629,0.09326448832345773
0.5202783142419618,5.578086614608765,0.09327182422721363
0.5236783773898867,5.6123528480529785,0.09330817066705983
0.5270784144920753,5.6464948654174805,0.09334612481810962
0.530478451959084,5.680253267288208,0.09338992946213086
0.5338784490107222,5.715182065963745,0.0934140755007942
0.5372784429235459,5.748880624771118,0.09345792302739574
0.54067841941142,5.782563924789429,0.09350150321617219
0.5440783931818838,5.816600561141968,0.09353889569392494
0.5474783581067761,5.8507561683654785,0.09357394879433589
0.5508783353727972,5.884783744812012,0.09361063367170426
0.5542783230574598,5.9225897789001465,0.09358715422637155
0.5576783213467446,5.957034349441528,0.09361677113697135
0.5610783301402916,5.989837169647217,0.09367171665091147
0.5644783446231063,6.022045135498047,0.09373532278854661
0.5678783639658672,6.05601167678833,0.09377101536023272
0.5712783922317161,6.089770793914795,0.09380950639432377
0.5746784263798306,6.123533010482788,0.09384752648447339
0.5780784348127074,6.156991720199585,0.09388975348402262
0.5814784448209741,6.1908392906188965,0.09392562422062871
0.5848784270860896,6.226557731628418,0.09393286825482106
0.5882784088904046,6.259549856185913,0.09398094470148627
0.5916783862317897,6.293771743774414,0.09401014372932383
0.5950783773778775,6.328991413116455,0.09402420362660206
0.598478377161815,6.363171815872192,0.09405346806273253
0.6018783814900944,6.397156715393066,0.09408529574425357
0.6052783922277095,6.431639671325684,0.09410949977907423
0.6086784131589337,6.466680526733398,0.0941253260683969
0.6120784414036393,6.499201774597168,0.09417747942462934
0.6154784412501287,6.533195495605469,0.09420787142587853
0.6188784405988702,6.56784200668335,0.09422858222976552
0.6222784267981146,6.602863788604736,0.0942437170780422
0.6256784053376641,6.637090444564819,0.09426998329517092
0.6290783926703725,6.6712329387664795,0.09429717091945675
0.6324783906738246,6.706302881240845,0.09431103871598463
0.6358783991604411,6.739490509033203,0.09435110833795943
0.639278413333913,6.773186683654785,0.09438369901668808
0.6426784323661147,6.806782484054565,0.09441736001872257
0.6460784531411303,6.8410985469818115,0.09444074642458854
0.6494784700227706,6.876177787780762,0.09445341439206523
0.6528784738852657,6.910221815109253,0.09448010372948404
0.6562784566104262,6.949724435806274,0.09443229910371084
0.659678440268024,6.981658697128296,0.09448735162882765
0.663078424638911,7.015867710113525,0.09451124964672139
0.6664784193781518,7.0484983921051025,0.09455608589265799
0.6698784244558541,7.083112478256226,0.09457402046236739
0.6732784403089954,7.115978002548218,0.09461502551973822
0.6766784646971148,7.148993730545044,0.09465366598461465
0.6800784745849512,7.182123899459839,0.09469044033563655
0.6834784836024504,7.217734098434448,0.0946943284805545
0.6868784725906016,7.2535719871521,0.09469520310920415
0.6902784561430625,7.2870800495147705,0.0947263446336131
0.6936784505493928,7.320517539978027,0.09475811604318278
0.6970784552459578,7.354299306869507,0.0947851625504051
0.7004784707042563,7.388432025909424,0.09480745958653333
0.7038784842780065,7.42197322845459,0.09483710902909963
0.7072784876269673,7.456927537918091,0.09484851288020338
0.7106784832072367,7.491443634033203,0.09486535812385542
0.7140784772577707,7.525076150894165,0.09489318950917468
0.7174784603742205,7.5613110065460205,0.09488810336634494
0.7208784543450829,7.597151041030884,0.094887998205083
0.7242784586124195,7.634092330932617,0.09487420733408108
0.7276784736421267,7.666468620300293,0.09491703542818698
0.7310784971895532,7.699015855789185,0.09495739596897015
0.734478506229779,7.73311185836792,0.09497838899549958
0.7378785143927447,7.766992807388306,0.09500182795210549
0.7412785025391004,7.800870180130005,0.09502510430531824
0.7446784852535713,7.834994554519653,0.09504518223615101
0.7480784788515443,7.868571519851685,0.09507170100242603
0.751478482774394,7.901815176010132,0.09510200707501722
0.7548784974706072,7.938074827194214,0.09509591606324351
0.7582785207196671,7.973114252090454,0.0951044343207368
0.7616785190174247,8.008023023605347,0.09511442671583431
0.7650785139478071,8.041635036468506,0.095139671283042
0.7684785074034186,8.075685262680054,0.09515954156296402
0.7718784899486694,8.109269142150879,0.09518471719437081
0.7752784833801482,8.143865823745728,0.09519784585836447
0.7786784871303654,8.178716659545898,0.0952079060253934
0.7820785016585023,8.212903022766113,0.09522558582398767
0.7854785247256477,8.24859881401062,0.09522569134911456
0.7888785407881931,8.283066987991333,0.09523990834939491
0.7922785575503274,8.316593408584595,0.09526479396389846
0.7956785478641386,8.349403858184814,0.09529764775770729
0.7990785348371714,8.382882833480835,0.09532264147193967
0.8024785204426609,8.419315099716187,0.09531399062017673
0.8058785068836479,8.45194959640503,0.09534823861543401
0.8092784984483232,8.484907150268555,0.09537859214201405
0.8126784990251611,8.518449783325195,0.09540215880781189
0.8160785098815726,8.551917314529419,0.09542637982421588
0.8194785312214719,8.586471796035767,0.09543833028133997
0.8228785629417612,8.620924472808838,0.09545131331763702
0.8262785677889268,8.65655255317688,0.09545122757739047
0.8296785721213054,8.692676305770874,0.09544569968290437
0.8330785689268655,8.725155591964722,0.09548008171843658
0.836478546630328,8.75931429862976,0.09549589364103309
0.839878534299889,8.792653322219849,0.09552048778921356
0.8432785309268609,8.827587604522705,0.0955276309571618
0.8466785321234189,8.86178970336914,0.09554261164666573
0.8500785397711486,8.895808219909668,0.09555944988433897
0.8534785576613629,8.932911396026611,0.09554315718848315
0.8568785828935885,8.966457605361938,0.09556489536973614
0.860278579796695,9.002021074295044,0.09556504841487101
0.8636785762248315,9.036757230758667,0.09557394916896784
0.8670785655913327,9.06887412071228,0.09561038713846778
0.8704785618579679,9.101963758468628,0.09563634672221796
0.8738785627726544,9.135800123214722,0.09565429967672634
0.8772785701350762,9.168713092803955,0.0956817561260158
0.8806785877389987,9.202786445617676,0.09569694928196162
0.8840786034827507,9.236233472824097,0.09571852055104367
0.8874785944321715,9.273191928863525,0.09570368016107009
0.8908785874247842,9.310947895050049,0.09568076177275134
0.8942785705484908,9.346756935119629,0.09567795297942505
0.8976785666383719,9.37822151184082,0.09571948855174454
0.9010785672939035,9.410751342773438,0.09574990715123359
0.9044785743796925,9.443913698196411,0.09577370180250894
0.9078785916792812,9.477854251861572,0.09578946537408108
0.9112786163053006,9.511303663253784,0.09581006437907749
0.9146786125504374,9.544959545135498,0.09582844308822608
0.9180786083091423,9.57930064201355,0.09583983660378824
0.9214785969513137,9.617948293685913,0.09580822944912848
0.9248785924843983,9.651230573654175,0.09583012087692962
0.9282785926311908,9.683057308197021,0.09586627065042494
0.9316785992039498,9.717618703842163,0.09587519613581685
0.9350786160024276,9.750023603439331,0.0959052669034132
0.938478630927592,9.784123182296753,0.09591852161322552
0.9418786299095322,9.818209648132324,0.09593181075418386
0.9452786251971519,9.85197639465332,0.0959481212023768
0.9486786134174754,9.88510251045227,0.09597053873891195
0.9520786085332318,9.919008255004883,0.09598526224159928
0.9554786082967085,9.955292701721191,0.09597694783313743
0.9588786145148812,9.988646507263184,0.0959968514070088
0.9622786309876259,10.021849870681763,0.09601806486871314
0.9656786548093326,10.056131362915039,0.09602884250006503
0.9690786503143788,10.090859651565552,0.09603529171709672
0.9724786453485823,10.125073671340942,0.0960465747623335
0.9758786272921888,10.158969402313232,0.09606079009057532
0.9792786222783183,10.194783449172974,0.09605683408192058
0.9826786218565506,10.227413892745972,0.09608280569866622
0.9860786278925007,10.265968322753906,0.09605315318448004
0.9894786441722466,10.302501201629639,0.09604256527684092
0.9928786677982852,10.335017204284668,0.09606937735784898
0.9962786630798038,10.368491411209106,0.09608713780702494
0.9996786578903926,10.402477979660034,0.09610005037694522
1.0030786456030036,10.437191486358643,0.09610618401645907
1.0064786402188162,10.470643520355225,0.09612385697805426
1.0098786394530483,10.504215955734253,0.0961403158225965
1.0132786451119637,10.53891921043396,0.09614635285454855
1.016678660988862,10.575231552124023,0.09613772104920608
1.020078684195577,10.612026453018188,0.09612477774265764
1.0234786790333894,10.644959449768066,0.09614678983635669
1.0268786733892474,10.678970336914062,0.09615895924344219
1.0302786606420842,10.71274209022522,0.09617319748434493
1.033678654790929,10.745548963546753,0.09619598387179519
1.0370786535653926,10.779333353042603,0.09620990645703188
1.0404786587755763,10.813343524932861,0.09622173348848977
1.0438786742202717,10.85037112236023,0.09620672532288478
1.0472786970019168,10.883522748947144,0.0962260769017301
1.0506786914475528,10.917293787002563,0.09623984770826852
1.0540786854154174,10.95262598991394,0.0962398137566368
1.05747867232392,10.986187934875488,0.0962552869650964
1.0608786661365124,11.019943475723267,0.09626897528772345
1.0642786646099625,11.054597616195679,0.09627475386808539
1.0676786695471512,11.087706089019775,0.09629391877590263
1.0710786847456004,11.122790336608887,0.09629586212915621
1.0744787075466808,11.156131505966187,0.0963128398918622
1.077878713602612,11.189614295959473,0.09632849579022844
1.0812787190184434,11.227617740631104,0.09630526653089143
1.0846786999086049,11.262486457824707,0.09630899037885327
1.0880786934853313,11.295910120010376,0.09632501338319181
1.0914786917074075,11.330719947814941,0.09632915619963693
1.09487869638244,11.36332082748413,0.0963520007051362
1.0982787113036883,11.39768362045288,0.09635981729944253
1.1016787335728557,11.429638862609863,0.09638788651291617
1.1050787274996667,11.462825298309326,0.09640544095727054
1.1084787209556681,11.49718451499939,0.09641305830218964
1.111878707312398,11.531316041946411,0.09642253349642128
1.1152787005737215,11.564876079559326,0.09643671863851208
1.1186786984552004,11.60292911529541,0.09641347347201465
1.1220787027651213,11.635318040847778,0.09643730397621034
1.125478717299175,11.668040752410889,0.09645824360586201
1.1288787394073752,11.701804399490356,0.0964704844542215
1.132278744752382,11.735766887664795,0.09648101871744702
1.135678749423657,11.77093505859375,0.09648160862076274
1.1390787326600058,11.804571866989136,0.0964947094646761
1.1424787282782494,11.838299751281738,0.09650699444019
1.145878725666321,11.875314474105835,0.09649249526527601
1.1492787294853033,11.91206669807434,0.09648021276367529
1.1526787435506274,11.944668054580688,0.09650153007881905
1.1560787649601094,11.976428508758545,0.09652950911990593
1.1594787580533468,12.009974241256714,0.09654298458612014
1.1628787506763947,12.04416823387146,0.09655118793559068
1.1662787362555667,12.078018188476562,0.09656209471254927
1.1696787287478967,12.111236810684204,0.09657797523338309
1.1730787259113356,12.146450281143188,0.09657790537639518
