Distance,Time,Velocity
3.974674818423337e-06,2.1661176681518555,1.8349302426467687e-06
4.24211674237863e-06,2.2003509998321533,1.9279272910104916e-06
0.0011591735911868812,2.2350709438323975,0.0005186294396540662
0.003469231270399297,2.270512342453003,0.0015279508530005297
0.006867159163183873,2.304163694381714,0.002980326085307306
0.01026542269849918,2.338031530380249,0.00439062628758888
0.013664440090534354,2.372560977935791,0.005759363075432052
0.017064245386722066,2.4059972763061523,0.007092379345050729
0.02046502770361746,2.4399704933166504,0.008387407864018618
0.023866543161524485,2.473694086074829,0.009648138505030376
0.02726835057451481,2.508091688156128,0.010872150608880518
0.03067035714840547,2.5435073375701904,0.012058293166830344
0.03407231894031155,2.577267646789551,0.013220326178677924
0.0374736741285452,2.6117398738861084,0.014348164801262032
0.04087453769647588,2.645312547683716,0.015451685560659505
0.04427475448970025,2.679900646209717,0.01652104325297271
0.047674323010761986,2.714053153991699,0.017565729300712065
0.051073289695973745,2.7488367557525635,0.018579964630162676
0.05447181643254656,2.784154176712036,0.019564942519410107
0.057870246426181736,2.8180737495422363,0.02053539103991941
0.06126865844878843,2.854283571243286,0.02146551206967171
0.06466741799490186,2.888326406478882,0.022389234765795393
0.0680664716697969,2.9224298000335693,0.023291054474264886
0.07146621365864596,2.956552267074585,0.02417214620371299
0.07486622517464399,2.991337299346924,0.02502767748424391
0.07826713035254905,3.02482008934021,0.02587497042497529
0.08166797561113204,3.0588932037353516,0.02669853772972643
0.08506940043967,3.0929043292999268,0.027504698297255544
0.08847036644593315,3.127182960510254,0.02829075483050652
0.0918713487571548,3.161205291748047,0.02906212671381201
0.09527202143147424,3.1951427459716797,0.02981776684362217
0.09867227230553657,3.233302354812622,0.030517490007907065
0.10207228846760871,3.2654993534088135,0.03125778860162895
0.10547162059502514,3.300510883331299,0.03195614991839374
0.10887093892998329,3.3345024585723877,0.03264983015684882
0.11226984601998816,3.3696024417877197,0.033318424935739346
0.11566911607130996,3.4035191535949707,0.033985152088577004
0.11906819993122675,3.4395906925201416,0.034616967707860345
0.12246769443640095,3.4732184410095215,0.03526057934922303
0.12586754475904,3.5065813064575195,0.03589466028557488
0.12926756681535015,3.541649580001831,0.03649925377859752
0.13266792193993732,3.5758373737335205,0.037101218001259144
0.13606855965821335,3.6102755069732666,0.03768924543165645
0.139469284395802,3.644609212875366,0.038267280865969595
0.14287008369330453,3.680541753768921,0.03881767773643752
0.14627082715070908,3.715686798095703,0.0393657579604592
0.1496713989854984,3.750734806060791,0.039904553833996805
0.15307173640628757,3.785227060317993,0.04043924815264006
0.15647181051972348,3.8223602771759033,0.04093591372169932
0.15987162797726504,3.855945587158203,0.041461069499969
0.16327122061606034,3.889692783355713,0.0419753511934696
0.1666706466585728,3.9239065647125244,0.042475691994664895
0.17007003965119327,3.9579670429229736,0.04296903885424875
0.17346946575990504,3.9921696186065674,0.04345242871229832
0.17686896086788392,4.025764465332031,0.04393425457226703
0.1802686177471809,4.0604188442230225,0.04439655726740083
0.18366848997944146,4.096190690994263,0.0448388524448455
0.18706854073485052,4.128413915634155,0.045312447966137474
0.19046878437599918,4.162487506866455,0.04575840385389773
0.19386916290973571,4.197578191757202,0.04618595629509349
0.19726964712899853,4.23177695274353,0.04661626766531383
0.20067013714217685,4.266101121902466,0.047038298298163195
0.20407057753745192,4.303168058395386,0.04742333433603987
0.20747091254406344,4.336721658706665,0.04784049539530218
0.21087111535126693,4.370711326599121,0.04824640649862985
0.214271151046654,4.404517412185669,0.04864804267860199
0.21767103169029567,4.438827037811279,0.04903796201926941
0.22107078858834944,4.473255634307861,0.04942055779080359
0.22447045587184186,4.507487773895264,0.049799459728286706
0.2278700662339828,4.543845176696777,0.050149170443266874
0.23126967377018512,4.576303958892822,0.05053634458016592
0.23466934617780566,4.610951900482178,0.05089390460856157
0.23806910863957126,4.644904613494873,0.05125382078846301
0.2414689967904182,4.679213523864746,0.05160461166366682
0.24486901078336226,4.716264963150024,0.05192011320326936
0.24826914359055957,4.759893417358398,0.0521585510056109
0.2516693830093151,4.803317546844482,0.05239490842629135
0.25506968107453826,4.834370136260986,0.052761719497095655
0.2584700165112237,4.867692947387695,0.053099079852589035
0.2618703290683924,4.901023626327515,0.05343176222650038
0.2652705627838562,4.93520712852478,0.05375064427400238
0.26867070940345095,4.968875885009766,0.054070722557990177
0.27207073867006104,5.0032923221588135,0.05437834153025629
0.2754706500035859,5.038992643356323,0.05466780158267964
0.2788704856893315,5.072758674621582,0.05497412819665321
0.28227023880960006,5.106696605682373,0.05527452688211584
0.28566997037771275,5.140399217605591,0.05557349892189472
0.28906971933833736,5.174299240112305,0.05586644798147841
0.29246951038641295,5.208522081375122,0.05615211106279825
0.2958693648496107,5.242848873138428,0.056432937894793825
0.2992693018571531,5.280888319015503,0.056670257687431044
0.3026693015673607,5.313165664672852,0.056965907082439336
0.3060693878585598,5.347492933273315,0.057236052796652906
0.30946953577304515,5.381672143936157,0.05750434576765187
0.31286971956272486,5.415399551391602,0.05777407864251242
0.3162699238590218,5.449734926223755,0.058034001312091785
0.31967010956605146,5.4837586879730225,0.05829397822831844
0.3230702457921055,5.520550012588501,0.05852138737180335
0.3264703358847388,5.553766965866089,0.05878358560797608
0.32987034818950534,5.587684631347656,0.05903524804153919
0.3332703079071925,5.6230034828186035,0.05926909149630055
0.33667020426675726,5.655716419219971,0.059527419571929384
0.3400700724017933,5.689757347106934,0.05976881818601781
0.3434699219220351,5.726673126220703,0.05997721789801312
0.3468697929788204,5.760678768157959,0.06021335452622988
0.35026969225148,5.794689893722534,0.06044666732398086
0.35366961837493743,5.828155994415283,0.06068293620037529
0.3570695835214873,5.862356901168823,0.06090887838137177
0.36046958195044976,5.896090507507324,0.06113705030332796
0.36386962034927833,5.930074453353882,0.061360042476951364
0.36726968574680857,5.96439266204834,0.06157704674337753
0.370669777281776,5.999739170074463,0.06178098193511563
0.3740698824715648,6.032469987869263,0.06200940630020284
0.3774699755240117,6.065976619720459,0.06222740362975662
0.38087005807263313,6.100304126739502,0.062434601646033185
0.3842701065722004,6.1345720291137695,0.06264008389640083
0.3876701120625124,6.169519901275635,0.06283635003468523
0.39107008413470906,6.203243017196655,0.06304284437198139
0.394470040194267,6.237375974655151,0.06324294732226339
0.39786997603774826,6.272367477416992,0.06343218529052033
0.4012699182011195,6.306025743484497,0.06363277514617174
0.40466984779749293,6.340338468551636,0.06382464434740726
0.40806978778034547,6.3744189739227295,0.06401678167841311
0.41146974887619564,6.408333778381348,0.06420853892852738
0.4148697309718866,6.442499160766602,0.0643957757105118
0.4182697547420845,6.476560354232788,0.0645820824426846
0.42166977611488926,6.511770486831665,0.06475501201518158
0.4250698251374777,6.545078992843628,0.0649449495723807
0.4284698579431129,6.579077959060669,0.06512612566826734
0.4318698817458508,6.613166809082031,0.06530454987960577
0.4352699008033429,6.646998405456543,0.06548367763200129
0.4386699074697665,6.680776119232178,0.06566151890750424
0.4420699189106395,6.71514630317688,0.06583176284655182
0.4454699172597234,6.751739740371704,0.0659785380345835
0.44886990170172875,6.785012245178223,0.06615609308895776
0.4522698856009352,6.819012880325317,0.06632483227973586
0.455669870421084,6.853443622589111,0.06648772434914112
0.4590698362777011,6.887379169464111,0.06665377714545373
0.462469801933024,6.921494960784912,0.06681646155248792
0.46586976908911354,6.9550628662109375,0.0669828264748548
0.46926975021661965,6.99084734916687,0.06712630483521352
0.47266973986768335,7.0248799324035645,0.06728509873704834
0.47606974890449155,7.05841588973999,0.06744710942812247
0.4794697561088972,7.093037843704224,0.06759723642733335
0.48286979116919704,7.126965761184692,0.06775250609439312
0.48626981005091846,7.161106586456299,0.0679042832528975
0.48966982003456594,7.195327281951904,0.0680538634097727
0.4930698254247829,7.232264995574951,0.06817640472610818
0.4964698243586133,7.265490293502808,0.06833259756779021
0.49986981304933864,7.299222230911255,0.0684826132478136
0.5032697915035061,7.333524703979492,0.06862590797988448
0.5066697592533098,7.367112159729004,0.06877454126773434
0.5100697392706693,7.401276588439941,0.06891645423268569
0.5134697227134116,7.43566107749939,0.0690550197704938
0.5168697326542269,7.47059440612793,0.06918722989836691
0.5202697459782647,7.504839897155762,0.06932456296308737
0.5236697607408974,7.5376880168914795,0.06947352551172015
0.5270697863759237,7.571865081787109,0.0696089775349675
0.5304698010850389,7.606415748596191,0.06973978528361932
0.5338698054307548,7.640772819519043,0.06987117900782709
0.5372697989720288,7.676790952682495,0.0699862484576698
0.5406697839228447,7.717580795288086,0.07005689972859717
0.5440697643735705,7.752430200576782,0.07018054342921934
0.5474697384489192,7.788020372390747,0.07029639269945288
0.5508697157937529,7.822952747344971,0.07041710893379899
0.554269718569092,7.861910581588745,0.070500638848157
0.5576697218426109,7.895958662033081,0.07062723422351606
0.5610697325864563,7.929901123046875,0.07075368581277829
0.5644697523158397,7.965469837188721,0.07086458976725721
0.5678697597854104,8.000893354415894,0.07097579415578498
0.5712697569306063,8.037875413894653,0.07107223333458021
0.5746697435501185,8.073808431625366,0.07117703478065181
0.5780697197428517,8.109954833984375,0.07127903071919443
0.5814697108629504,8.145740509033203,0.07138328433346615
0.5848697026541652,8.183582782745361,0.07146866087642335
0.5882697164184021,8.219707012176514,0.07156820985796097
0.5916697274244559,8.257261276245117,0.07165447569481657
0.5950697354049671,8.29059624671936,0.0717764703160451
0.5984697330201683,8.326645374298096,0.07187405084735184
0.601869720121883,8.36162781715393,0.07197997008275632
0.6052696968049849,8.398017644882202,0.07207292511153982
0.6086697003019643,8.435593605041504,0.07215493405682737
0.6120696926886843,8.468606233596802,0.07227513900226826
0.6154697068577365,8.50344729423523,0.0723788465502672
0.6188697183035994,8.539299726486206,0.07247312287025848
0.6222697266894737,8.575189352035522,0.07256629575669525
0.6256697246892703,8.612279653549194,0.07264856110790903
0.6290697121582601,8.647854804992676,0.07274286240271734
0.6324696891945748,8.683486461639404,0.07283591584884758
0.6358696811197484,8.717679262161255,0.07294024728343881
0.6392696736910384,8.755716562271118,0.0730116911785025
0.6426696881812849,8.790905714035034,0.07310619736886007
0.646069699915504,8.826735973358154,0.07319463297254433
0.6494697085650445,8.864264965057373,0.07326830945659135
0.6528697068171891,8.898135900497437,0.07337151445177315
0.656269694531475,8.931894779205322,0.0734748573235951
0.6596696718032384,8.966461658477783,0.07357079045551053
0.6630696639661315,9.000574588775635,0.07366970379791388
0.6664696567794406,9.03565502166748,0.07375997148864669
0.6698696715336893,9.073177099227905,0.07382967004917085
0.6732696835203063,9.106288194656372,0.07393458993702673
0.676669692455919,9.14111065864563,0.07402488797309627
0.6800696910138161,9.174957990646362,0.07412237655007575
0.6834696790490743,9.209766149520874,0.07421140428029553
0.6868696566551272,9.246891021728516,0.0742811454186178
0.6902696402951173,9.282783269882202,0.07436020213190615
0.6936696272151386,9.316119909286499,0.0744590702963875
0.697069639398082,9.350855112075806,0.0745460849348289
0.7004696520693293,9.385431289672852,0.07463372011897661
0.7038696718028696,9.423313856124878,0.07469449522212135
0.70726968461329,9.456600189208984,0.07479111630629812
0.7106696927631593,9.490722894668579,0.0748804596499576
0.7140696944490009,9.524977207183838,0.07496812631850101
0.7174696858714609,9.559039831161499,0.07505666871818889
0.7208696670356962,9.593037843704224,0.07514508738322062
0.7242696374839679,9.629277467727661,0.07521536687579558
0.7276696201750198,9.663588523864746,0.07530014532158534
0.7310696062689074,9.697693109512329,0.07538592921153708
0.734469618833957,9.731497526168823,0.07547344248497272
0.7378696233304628,9.765841722488403,0.07555617265753192
0.7412696449044568,9.799636602401733,0.07564256461538416
0.744669648908852,9.834567785263062,0.07571961118868155
0.7480696471410188,9.871809482574463,0.07577837158035693
0.751469640451614,9.904678583145142,0.07587016924813643
0.7548696247722378,9.938601016998291,0.07595330806430013
0.7582696031487478,9.973484754562378,0.07602855188622781
0.7616695937156445,10.007148742675781,0.07611254846922401
0.7650695877559419,10.04118824005127,0.07619313267172009
0.7684696081754678,10.079386234283447,0.07624170661916291
0.7718696202938367,10.11290168762207,0.07632523722035042
0.7752696436947616,10.147013902664185,0.07640372341376293
0.7786696510177448,10.18115758895874,0.07648144567197313
0.7820696475448864,10.215725183486938,0.07655547046322776
0.7854696354859033,10.250450134277344,0.07662781879785993
0.7888696189417354,10.288242101669312,0.07667681331232844
0.7922695960377856,10.321588516235352,0.07675849456617888
0.7956695702506313,10.356176614761353,0.07683043654513483
0.7990695643832614,10.390737533569336,0.07690210264687265
0.802469559024131,10.42449140548706,0.07697925278174637
0.8058695782903581,10.458746910095215,0.07705221143772964
0.8092695954998327,10.496452569961548,0.07709934285948927
0.8126696061706252,10.52923059463501,0.07718224032292609
0.816069606525948,10.56354022026062,0.07725341973524612
0.8194695963487851,10.59827208518982,0.07732105665544518
0.8228695757387579,10.632229804992676,0.07739388546251655
0.8262695611398634,10.666619777679443,0.07746311187250558
0.8296695497946103,10.703492164611816,0.0775139120050638
0.8330695636789047,10.737049102783203,0.07758831646424721
0.8364695780407376,10.771074056625366,0.0776588828229455
0.8398695891015387,10.805022478103638,0.07772955501050861
0.8432695897613005,10.83989405632019,0.0777931578832759
0.8466695798730843,10.873416662216187,0.0778660108570252
0.8500695595340562,10.911121845245361,0.07790853879103946
0.8534695451777228,10.944178104400635,0.07798388668716422
0.8568695340585991,10.978352308273315,0.07805083221940873
0.8602695481546045,11.012078762054443,0.07812054079370845
0.8636695627187443,11.046570777893066,0.07818440492384857
0.8670695739811665,11.081100463867188,0.07824760517319308
0.8704695748460407,11.116432666778564,0.07830475845434096
0.8738695651661352,11.151727437973022,0.07836181165892742
0.8772695450354163,11.185884714126587,0.07842647832115754
0.8806695309053556,11.220088481903076,0.0784904265528557
0.8840695200332658,11.25495982170105,0.07854932705567397
0.8874695344011665,11.288963556289673,0.07861390728883262
0.8908695374869136,11.325273752212524,0.07866207537039639
0.8942695548829221,11.359317779541016,0.07872563935957218
0.8976695561230752,11.394136190414429,0.07878346731349935
0.901069546845037,11.428519248962402,0.07884394532798686
0.9044695271312625,11.462549209594727,0.07890649022245211
0.9078695134383905,11.497101783752441,0.07896507576556208
0.9112695030140061,11.532476425170898,0.07901767750637323
0.9146695178351352,11.56762409210205,0.07907151118954825
0.9180695213799761,11.6019868850708,0.0791303705541444
0.9214695392274151,11.635915040969849,0.07919184146523392
0.924869540908773,11.670279026031494,0.07924999383868862
0.9282695320633477,11.704771518707275,0.07930693312378896
0.9316695127772899,11.742029666900635,0.07934484405226414
0.9350694994873451,11.777302026748657,0.0793959004671538
0.9384694894405916,11.811280965805054,0.07945535223127476
0.9418695046103441,11.844931840896606,0.07951666731912989
0.9452695084938898,11.87960410118103,0.079570792127653
0.9486695266442191,11.918788433074951,0.07959445978683842
0.952069528605283,11.95252513885498,0.07965425862275063
0.9554695200218807,11.986820697784424,0.079710003520657
0.9588695009808065,12.020864963531494,0.07976709695099257
0.9622694762985834,12.054989337921143,0.07982333698724986
0.9656694718366773,12.089686870574951,0.07987547420992491
0.9690694754396731,12.127087354660034,0.07990949904943928
0.9724694796659425,12.16057562828064,0.07996903348920154
0.9758695052512601,12.195576190948486,0.08001831893564382
0.9792695184150016,12.229475021362305,0.08007453441005645
0.982669529746,12.26314401626587,0.08013194075210928
0.986069534604192,12.297832727432251,0.08018238306369291
0.989469529182715,12.332059144973755,0.08023554846361555
0.9928695134945733,12.367333889007568,0.08028161303036085
0.9962694870739027,12.401085615158081,0.0803372799762098
0.999669452206598,12.435150861740112,0.08039061715626901
1.003069442411853,12.470113754272461,0.08043787427906865
1.0064694360235464,12.504176378250122,0.0804906621258325
1.0098694331494298,12.538631677627563,0.08054064104549144
1.0132694566585916,12.576581001281738,0.08056795853780328
1.0166694718755254,12.608988523483276,0.08063053352630596
1.0200694983725604,12.643860816955566,0.08067705846655913
1.0234695087864036,12.67847752571106,0.08072495350572492
1.0268695084039032,12.713058948516846,0.08077281105690946
1.0302694994209365,12.750476837158203,0.08080242900551479
1.0336694859290794,12.783972263336182,0.080856674642012
1.0370694660507893,12.817481279373169,0.08091055047762914
1.040469435998972,12.851560354232788,0.08096055321844892
1.0438694078622328,12.884867429733276,0.08101514536761062
1.0472694045795619,12.91947627067566,0.08106128937723511
1.050669406030419,12.953442573547363,0.0811112104033274
1.0540694173926763,12.988070726394653,0.08115673525326378
1.0574694497746975,13.02402949333191,0.0811937235182172
1.0608694674279935,13.057613134384155,0.08124528246547932
1.064269474371928,13.093079805374146,0.08128488409083792
1.067669475522693,13.127131938934326,0.08133303454930975
1.0710694717392268,13.161713123321533,0.08137766426783569
1.0744694589576311,13.198966026306152,0.08140557804423192
1.0778694359268979,13.23360013961792,0.0814494487180431
1.0812694036532118,13.268747806549072,0.08148993555514925
1.0846693927662083,13.302465438842773,0.08153897469254145
1.088069381104144,13.336937427520752,0.08158315108076569
1.0914693894207195,13.371039152145386,0.0816293615627917
1.0948694117751814,13.407584428787231,0.0816604525289733
1.0982694253831733,13.440957069396973,0.08171065644453003
1.101669450844932,13.475294351577759,0.08175475964396597
1.105069464024056,13.509142875671387,0.08180159719934381
1.1084694668683865,13.544378280639648,0.0818398189935993
1.111869459172578,13.581371784210205,0.08186724263488943
1.1152694410358752,13.617635488510132,0.08189890542869083
1.1186694173050804,13.64936351776123,0.0819576250459893
1.1220693887816646,13.684087038040161,0.0819981183737317
1.1254693676394185,13.718241214752197,0.08204181206765204
1.1288693678625101,13.752522468566895,0.0820845317971799
1.132269367170462,13.786729574203491,0.08212748071080354
1.1356693794682668,13.823591947555542,0.08215443451867009
1.139069405370384,13.85773777961731,0.08219735598156484
1.142469425523048,13.89150094985962,0.08224233145480174
1.1458694334961057,13.925535678863525,0.08228548329636833
1.1492694356922972,13.959946393966675,0.08232620693937608
1.152669432953247,13.994261980056763,0.08236728986465434
1.156069421209695,14.031923770904541,0.08238851921408144
1.1594693992052334,14.065985918045044,0.08243072373034067
1.1628693667399976,14.10047960281372,0.08247019956030074
1.1662693433613673,14.13465166091919,0.08251136082723412
1.1696693276490355,14.168344259262085,0.08255511767964016
