Distance,Time,Velocity
4.53726571182784e-07,1.0577590465545654,4.2895078294126236e-07
1.3728603256840037e-06,1.092618703842163,1.2564862022372295e-06
0.0011576178953471342,1.127331256866455,0.0010268657843878685
0.0034696676190941445,1.1629960536956787,0.0029833872677972584
0.00686915216959706,1.197523832321167,0.005736129824057485
0.010268870418987523,1.2333369255065918,0.008326086900195253
0.013668952718990301,1.2712757587432861,0.010752153987819828
0.017069402357210203,1.304762840270996,0.01308237928792096
0.02047021971217498,1.3404526710510254,0.015271124564304565
0.02387134825756786,1.3789401054382324,0.017311374267398986
0.02727274994846471,1.4145734310150146,0.019279840374843878
0.030673887490612003,1.4522523880004883,0.02112159549129396
0.034075144838592676,1.486802339553833,0.022918409483279476
0.037475713803454616,1.5222103595733643,0.024619273918197532
0.04087623383637993,1.559514045715332,0.02621087892647382
0.04427616181172892,1.5961050987243652,0.02774012929794861
0.04767567475950473,1.6308023929595947,0.029234489086677442
0.05107493091750849,1.6678369045257568,0.03062345651359205
0.054473871964373415,1.702998399734497,0.03198703649566909
0.05787296369409253,1.739356279373169,0.0332726333186602
0.061271851401638495,1.773665428161621,0.03454532654737816
0.06467086342056765,1.8089118003845215,0.035751252994657076
0.06807024960660968,1.8457825183868408,0.03687880285381674
0.07146997973367697,1.8835041522979736,0.037945220161304055
0.07487005057223159,1.9197649955749512,0.038999591483752795
0.07827041199674176,1.9557054042816162,0.040021575757465684
0.08167103880158577,1.9914188385009766,0.04101148247802203
0.08507183501396769,2.0256707668304443,0.04199687155829331
0.08847291064543455,2.0603420734405518,0.04294088432494815
0.09187355479634658,2.095104694366455,0.04385153402757684
0.095274332056497,2.1315646171569824,0.044696900713041054
0.09867476231454869,2.165262222290039,0.04557173782406254
0.10207482169773759,2.1987192630767822,0.046424672495432175
0.10547479280146492,2.23262095451355,0.047242588397387
0.10887446545368185,2.266242504119873,0.04804184250174266
0.11227395640199564,2.3003339767456055,0.048807676423070996
0.11567336907374313,2.3346567153930664,0.04954620022338838
0.11907277328447541,2.3694844245910645,0.05025260856273638
0.1224722369352952,2.4044504165649414,0.05093564670394082
0.1258718436561148,2.4379687309265137,0.05162980232657828
0.12927165171973434,2.473073720932007,0.05227165313576532
0.13267168637271629,2.506784439086914,0.05292504784377926
0.1360718898402563,2.5402069091796875,0.053567246568980556
0.13947226754810363,2.575105905532837,0.054161759812843206
0.14287276188283052,2.609623670578003,0.054748415832381596
0.1462732343322123,2.6433069705963135,0.055337210531856605
0.14967372653944755,2.678560733795166,0.05587841434805911
0.15307408607036543,2.7120120525360107,0.05644299623492653
0.15647435397857723,2.7475295066833496,0.056950927587112087
0.1598744171526363,2.783698320388794,0.05743237906983647
0.16327435599114745,2.821051597595215,0.05787712501619237
0.16667411851720598,2.8588449954986572,0.05830120862783387
0.170073787599806,2.8930277824401855,0.05878747125489187
0.17347342304402544,2.9279720783233643,0.05924695263602411
0.17687302829576296,2.9650490283966064,0.05965264877640476
0.18027268605190508,2.998218297958374,0.060126604582014964
0.18367245327197104,3.0329246520996094,0.06055951740997578
0.18707232252118183,3.0672430992126465,0.06099038011339982
0.19047231004976545,3.1006078720092773,0.061430634866554173
0.19387243165403648,3.1354470252990723,0.06183246921084374
0.19727265759441998,3.170011043548584,0.062230905471417026
0.2006729395985976,3.2065584659576416,0.06258203046320145
0.20407326427362235,3.241828203201294,0.06295005517938944
0.20747357756351906,3.277711868286133,0.0632982964643576
0.2108738230120116,3.3142285346984863,0.06362682017979666
0.21427399777533937,3.3530328273773193,0.0639045332410123
0.21767404938630944,3.3954975605010986,0.06410667229405569
0.22107400567770205,3.4365413188934326,0.06433037905357936
0.2244738611065633,3.481765031814575,0.06447128368957607
0.22787365612683366,3.516932249069214,0.0647933027959644
0.2312734114561081,3.5601232051849365,0.06496219319580943
0.23467317061073967,3.6022720336914062,0.06514587693985448
0.2380729739718149,3.6365151405334473,0.06546734023411532
0.24147282028830228,3.6731584072113037,0.06573983300427022
0.24487276301524705,3.706831216812134,0.06605986318034654
0.2482727740579447,3.742537021636963,0.06633809435219741
0.2516728734575861,3.7851579189300537,0.06648939855294761
0.25507302153362016,3.8254263401031494,0.06667832519988931
0.2584732082821143,3.870088577270508,0.06678741406596177
0.2618733900171636,3.9069297313690186,0.06702792423282236
0.26527356766316784,3.942878007888794,0.06727917199883342
0.2686736915391239,3.979065418243408,0.0675218080877223
0.27207375782722204,4.014116525650024,0.06777923762020434
0.27547375639638166,4.051163911819458,0.0679986696150887
0.27887368659023754,4.089823484420776,0.0681872182632188
0.282273569595949,4.124601602554321,0.06843656595127637
0.28567342024029063,4.159695625305176,0.06867652010460074
0.2890732583002469,4.2003562450408936,0.06882112883675955
0.2924731231620318,4.233946084976196,0.06907814064988882
0.2958730125489851,4.281371831893921,0.06910705824354943
0.2992729608754108,4.336728572845459,0.06900892132131957
0.3026729497005476,4.376089572906494,0.06916516324859398
0.30607298382657505,4.411545038223267,0.06937999752346284
0.3094730585142552,4.447070837020874,0.0695903145814456
0.31287315625300827,4.486367464065552,0.06973863794239499
0.31627328237624464,4.521548271179199,0.0699480052866409
0.31967339524545185,4.556618690490723,0.07015583636888098
0.323073505351384,4.59488582611084,0.07031154147846082
0.32647358088945044,4.63185977935791,0.07048434029553194
0.32987362153467575,4.66746973991394,0.07067504234976744
0.3332736413186331,4.7043843269348145,0.07084320033346013
0.3366736154561037,4.740570783615112,0.0710196368377733
0.340073574276655,4.776814699172974,0.07119254057217943
0.3434734883343547,4.813859224319458,0.07135096236282482
0.34687340001365335,4.850273132324219,0.07151626115691219
0.3502733012348835,4.892085313796997,0.07159999852149318
0.3536732269962562,4.930103778839111,0.07173748116911556
0.3570731548708782,4.967828989028931,0.07187710278663917
0.36047313677326914,5.003758430480957,0.07204047553083429
0.3638731341414008,5.043087005615234,0.07215285671975233
0.3672731742470481,5.0967535972595215,0.0720602177912873
0.37067322545737136,5.141458511352539,0.07209495605943539
0.37407329795539157,5.185678720474243,0.07213584144317789
0.37747337582271223,5.22440767288208,0.07225189905872649
0.3808734394341783,5.25902247428894,0.07242285829662198
0.3842735000448933,5.2937095165252686,0.07259059055758808
0.38767352125496146,5.3286192417144775,0.07275309112351362
0.39107352576115434,5.371632814407349,0.07280347322181988
0.3944734891817292,5.404407978057861,0.07299106410606106
0.39787345588641604,5.439124345779419,0.07315027761686543
0.4012734008448451,5.4777703285217285,0.07325487867855454
0.4046733652642356,5.5118184089660645,0.07341921217976888
0.40807333847839816,5.547652244567871,0.07355784401914771
0.41147331144666727,5.585778713226318,0.0736644490538728
0.41487329730315436,5.624549150466919,0.0737611648870939
0.41827329590582635,5.661402225494385,0.07388157195796143
0.42167329058313013,5.696223974227905,0.0740268101273679
0.42507329032798946,5.733786582946777,0.07413482943230347
0.42847330440499903,5.769904851913452,0.07426002948088581
0.43187332847049453,5.804788112640381,0.0743994991875856
0.4352733465928799,5.84046196937561,0.0745272118670116
0.4386733744113748,5.87996244430542,0.0746047918785974
0.44207341693140206,5.91605019569397,0.0747244195549875
0.4454734634889981,5.949581146240234,0.0748747605149498
0.44887348969758584,5.986905097961426,0.07497588192109972
0.4522735110381684,6.026244163513184,0.07505064494009843
0.4556735145077938,6.062705039978027,0.07516009957651598
0.45907351424738474,6.099306583404541,0.07526650906456596
0.46247348892787343,6.1369898319244385,0.07535835997675931
0.46587346461879814,6.172063589096069,0.07548098912037096
0.4692734318489526,6.208928108215332,0.07558042606871777
0.472673414061487,6.244697093963623,0.07569196823307767
0.47607340682780264,6.282393932342529,0.07577898042606318
0.4794734053676174,6.31725811958313,0.07589897330319272
0.4828734088262098,6.352713108062744,0.07601058014305037
0.4862734212628065,6.3897998332977295,0.07610151083744422
0.4896734439280986,6.426517009735107,0.07619577497209212
0.49307347703073184,6.463524580001831,0.07628554218797326
0.49647350102782245,6.49852728843689,0.0763978481572616
0.49987351731061225,6.53549861907959,0.07648590359292443
0.5032735082521126,6.571619749069214,0.07658287111383687
0.5066734986860947,6.6074934005737305,0.0766816503580768
0.5100734819228915,6.642938137054443,0.0767843191369932
0.513473461594729,6.678515911102295,0.07688436599232115
0.5168734478273576,6.7162463665008545,0.07695867894385286
0.5202734443929068,6.750670433044434,0.07706989247263143
0.5236734515054501,6.78867506980896,0.07713927181967582
0.5270734690654498,6.825973987579346,0.07721586253104998
0.5304734922476908,6.861347913742065,0.07731330620696937
0.5338735101802643,6.89745569229126,0.07740151354316527
0.5372735299317984,6.937957525253296,0.07743972602544627
0.5406735250950492,6.973438739776611,0.07753327235973816
0.544073512241821,7.007796287536621,0.0776383173708198
0.547473503850823,7.045973777770996,0.07770019036659218
0.5508734890428938,7.082030296325684,0.077784684051507
0.5542734824840535,7.116441488265991,0.07788632610806571
0.5576734862273193,7.151500463485718,0.07797992729983035
0.5610735002729734,7.189474105834961,0.0780409654466392
0.5644735250627984,7.222982168197632,0.07814964953785188
0.5678735376578089,7.257538080215454,0.07824602935337964
0.571273546872801,7.293657064437866,0.07832470622428832
0.5746735296376668,7.328169107437134,0.07841979643379794
0.5780735204958515,7.36518406867981,0.07848731479150522
0.5814735136448073,7.3991289138793945,0.07858675263166057
0.5848735170616822,7.4339869022369385,0.07867561844717398
0.588273530759506,7.469573497772217,0.07875597327410423
0.591673550362434,7.506582975387573,0.07882062348506648
0.5950735481172225,7.54078483581543,0.0789140071058497
0.5984735478590515,7.579465866088867,0.07895985791514278
0.601873534653255,7.614692211151123,0.07904108504502101
0.6052735251344258,7.648653507232666,0.07913465089797456
0.6086735178859884,7.68495512008667,0.07920326252720183
0.6120735208938861,7.720155477523804,0.07928253811414239
0.6154735341764299,7.753526449203491,0.07937982003526364
0.6188735581917556,7.78952169418335,0.0794494941395292
0.6222735699873211,7.826038599014282,0.07951322525622333
0.6256735783873151,7.861933469772339,0.07958266001523834
0.6290735646160542,7.896974325180054,0.07966007469597682
0.6324735563735908,7.930887699127197,0.0797481417424679
0.6358735485990162,7.965977668762207,0.07982366697970186
0.6392735511531491,8.002000570297241,0.07988921589509494
0.642673564006295,8.037819623947144,0.07995620629400196
0.6460735827586146,8.072900533676147,0.08002991986133301
0.6494735797127564,8.109193801879883,0.08009101713196135
0.6528735890518642,8.14233946800232,0.08018255583883724
0.656273574993779,8.180287599563599,0.08022622273436815
0.6596735664651884,8.213210821151733,0.08031859656716844
0.6630735584265688,8.24827790260315,0.08038933293182367
0.66647356072702,8.283695220947266,0.08045606977930397
0.6698735733302548,8.319489479064941,0.08051859131692109
0.6732735967916604,8.356425285339355,0.08056957057617235
0.6766735945457908,8.39060378074646,0.08064659138100683
0.6800735932619593,8.425671815872192,0.08071446504489337
0.683473579054325,8.460521221160889,0.0807838620326212
0.6868735685411487,8.494377136230469,0.08086214651471915
0.69027356032202,8.529795169830322,0.08092498665894121
0.6936735623722634,8.565919399261475,0.08098063150489948
0.697073574703531,8.601848125457764,0.08103765197161453
0.7004735977761682,8.638912677764893,0.0810835372348501
0.703873618918972,8.676018714904785,0.08112864230107839
0.7072736297961327,8.711424112319946,0.0811892086387903
0.7106736194679809,8.756928443908691,0.08115558143704196
0.7140736100347117,8.808121681213379,0.08106990751021768
0.7174735879103122,8.854321241378784,0.08103089647994159
0.7208735772934096,8.892564296722412,0.08106475851505583
0.7242735724945955,8.92716121673584,0.08113145432355276
0.7276735726149879,8.961873054504395,0.08119659452766366
0.7310735817312172,8.999282598495483,0.08123687346516259
0.7344736011028536,9.03361701965332,0.08130448739468925
0.7378736309331477,9.069539785385132,0.08135733988643773
0.7412736516757656,9.106797933578491,0.08139783676791039
0.7446736647530827,9.143552780151367,0.08144248550405972
0.7480736525409778,9.182278394699097,0.08146928467915311
0.7514736398405236,9.22068166732788,0.08149870768267156
0.754873620010009,9.257666110992432,0.08154038080004657
0.7582735966365329,9.293968915939331,0.08158770526293449
0.761673579876682,9.329753160476685,0.08163919953459582
0.765073573488695,9.369681358337402,0.08165417202879705
0.7684735776779997,9.404859781265259,0.08171026421986859
0.7718735923442158,9.441871881484985,0.08175005994921615
0.7752736126621338,9.481988191604614,0.08176276926273371
0.7786736378113815,9.521272897720337,0.08178251439445855
0.7820736646669634,9.55973744392395,0.08180911549658089
0.7854736876006385,9.597171545028687,0.08184428963422168
0.7888736974640641,9.63744568824768,0.08185506024963138
0.7922736861349617,9.673427104949951,0.08190206816460636
0.7956736757035436,9.72295594215393,0.08183454501258161
0.7990736465758316,9.761592149734497,0.08185894619635029
0.8024736350827664,9.807596683502197,0.08182163897834865
0.8058736293641542,9.848574876785278,0.08182642051732092
0.8092736285710149,9.882999420166016,0.08188542710219249
0.8126736367678401,9.917160987854004,0.08194619788497517
0.816073655209521,9.950839519500732,0.08201053324297468
0.8194736841032781,9.986908912658691,0.08205478704873055
0.8228737039082643,10.022918939590454,0.08209920771262745
0.8262737160254571,10.059342622756958,0.08213993170450344
0.8296737028337527,10.103930711746216,0.08211395411384052
0.8330736891501438,10.140507936477661,0.08215305331534652
0.8364736709891092,10.18117880821228,0.08215882332941622
0.8398736666138868,10.215578079223633,0.08221499166278369
0.8432736708674383,10.252407789230347,0.08225128069459509
0.8466736796700295,10.289068698883057,0.08228866036844922
0.8500736948896821,10.331885576248169,0.08227672370316459
0.8534737130514354,10.369396209716797,0.08230698256583881
0.8568737113551373,10.408287286758423,0.08232610109112426
0.8602737092119208,10.447296142578125,0.08234414890431423
0.8636736913880297,10.489043951034546,0.08234055414581846
0.8670736865280717,10.52564787864685,0.0823772271811491
0.8704736905239758,10.565770864486694,0.08238619800565447
0.8738736990764426,10.604204654693604,0.08240822650378132
0.8772737140527567,10.640142679214478,0.08244943141284292
0.8806737258003224,10.680741310119629,0.08245436344066445
0.884073724036142,10.717390060424805,0.082489647111071
0.8874737216409307,10.75447154045105,0.0825213696742657
0.8908737035521952,10.793195486068726,0.08254031020767547
0.8942736984209688,10.8276047706604,0.08259201525753743
0.8976737021316266,10.868990421295166,0.08259034807619771
0.9010737103736196,10.90637731552124,0.08261897459674998
0.904473725017011,10.942089319229126,0.08266005683462392
0.9078737425802196,10.984106302261353,0.08265340097749337
0.9112737402704105,11.021430015563965,0.08268198763532054
0.914673737484589,11.057827234268188,0.08271731128607406
0.9180737189762691,11.094941854476929,0.08274705095509954
0.9214737134149531,11.132291793823242,0.08277484371423262
0.9248737166836063,11.16722297668457,0.08282038592894574
0.9282737244780125,11.201848268508911,0.0828679073512907
0.9316737386735906,11.239861965179443,0.0828901406049177
0.9350737573127231,11.277206182479858,0.08291714651501568
0.9384737679027827,11.312316179275513,0.08296035515892788
0.9418737709618574,11.350820302963257,0.08297847607683216
0.9452737488212594,11.386568546295166,0.08301655981589133
0.9486737379760988,11.422752618789673,0.08305123726619039
0.9520737128982159,11.462392330169678,0.08306064610895432
0.9554737040336939,11.496219396591187,0.08311199282757314
0.9588737057389412,11.531181335449219,0.08315485446327746
0.9622737179279639,11.566878318786621,0.08319217090449237
0.965673735791993,11.603625297546387,0.08322172691979178
0.9690737585052497,11.641408681869507,0.08324368510612455
0.9724737829470851,11.675301313400269,0.08329324929977894
0.9758738034825671,11.712762594223022,0.0833171333946347
0.9792738109760214,11.751797676086426,0.08332970307757531
0.9826737973055658,11.785688161849976,0.08337856761614143
0.9860737845502184,11.82007646560669,0.08342363836811323
0.9894737591616565,11.859301567077637,0.08343440408906662
0.9928737452955452,11.89441442489624,0.0834739491855402
0.9962737372895575,11.930962085723877,0.08350321877911755
0.9996737342262276,11.967695951461792,0.08353101033654875
1.0030737401742404,12.007107019424438,0.08354000164665168
1.0064737563844968,12.041795492172241,0.08358170150279949
1.0098737830604838,12.07816219329834,0.0836115434532598
1.0132738123087073,12.117593765258789,0.08362005130208021
1.0166738227183527,12.153411149978638,0.08365337189469968
1.0200738190026162,12.188956022262573,0.08368836651305475
1.0234738147936826,12.22368049621582,0.08372877670604426
1.0268737886903512,12.2611825466156,0.08374997964399401
1.0302737819857901,12.298092365264893,0.08377508896385645
1.0336737839078185,12.33267593383789,0.0838158554926159
1.0370737903726015,12.368711233139038,0.08384655206388904
1.0404738032490513,12.407341003417969,0.08385953146306062
1.0438738205800724,12.441310167312622,0.08390384987930526
1.047273829868933,12.477659225463867,0.0839319147081451
1.0506738316391264,12.512130975723267,0.08397241314670557
1.0540738082223207,12.550686597824097,0.08398535012459515
1.0574738009561955,12.58633828163147,0.08401758933330714
1.0608738025432478,12.62004017829895,0.084062632729767
1.0642738086974985,12.654739618301392,0.08410080655933345
1.0676738212881491,12.689789056777954,0.084136451481664
1.0710738368365917,12.725027084350586,0.08417065281957735
1.0744738414061652,12.762749195098877,0.08418827518907777
1.0778738429386234,12.80085015296936,0.0842033013478088
1.0812738253732652,12.838545799255371,0.08422089559675665
1.0846738177730846,12.874354124069214,0.08425073656667836
1.0880738191209496,12.908671855926514,0.08429014473874033
1.0914738250185718,12.941914558410645,0.08433634916166625
1.0948738373437126,12.980135440826416,0.0843499547701179
1.0982738541327604,13.01357364654541,0.0843944856318778
1.101673862891217,13.047537326812744,0.08443538694672079
1.1050738641241664,13.081732273101807,0.08447458188671084
1.1084738401582153,13.116271257400513,0.08451135375328471
1.1118738323360167,13.150366306304932,0.08455078789728691
1.1152738333538632,13.186023950576782,0.08457999451040576
1.1186738389087227,13.223089218139648,0.08460003713611096
1.122073850870828,13.257473945617676,0.0846370775815656
1.1254738672778835,13.291535139083862,0.08467598779981544
1.128873875643656,13.341689586639404,0.0846125124042857
1.1322738764711444,13.39080548286438,0.08455606930591779
1.1356738581641572,13.42041301727295,0.08462286940815239
1.139073849798436,13.454892873764038,0.08465870821012174
1.1424738503673657,13.488162517547607,0.08470196358333086
1.1458738554717465,13.521503686904907,0.08474455815010311
1.1492738669978004,13.557425022125244,0.08477080751855354
1.152673882990165,13.591927766799927,0.0848057687450137
1.15607389094697,13.625513553619385,0.08484626185997068
1.1594738913985814,13.66008472442627,0.08488043191454508
1.162873872738024,13.695831537246704,0.08490713904997392
1.1662738640480619,13.732035160064697,0.08493088245504951
1.1696738643082705,13.768176317214966,0.08495488707867395
