Distance,Time,Velocity
2.1322039620941654e-06,0.07424497604370117,2.8718494849255975e-05
3.515798037025107e-06,0.1066901683807373,3.2953346033521465e-05
0.0011508896018527727,0.14006376266479492,0.00821689764687472
0.0034615872275467778,0.17772722244262695,0.01947696689326381
0.006860573031546344,0.21054553985595703,0.03258474644601803
0.010260855587091704,0.24425601959228516,0.042008608853199354
0.013662335557428467,0.27842044830322266,0.04907087694417138
0.017064616468504407,0.31251978874206543,0.054603315000281434
0.020467683754215545,0.346651554107666,0.05904396940294263
0.023870642502053986,0.38074755668640137,0.06269414493371203
0.027273345821888558,0.41734981536865234,0.06534888675534105
0.030675436509956838,0.4507441520690918,0.06805509593223694
0.03407688545256147,0.4852027893066406,0.07023225381959915
0.03747768486498382,0.519813060760498,0.07209839016001855
0.04087783891910898,0.5538725852966309,0.07380368699277025
0.04427734680904197,0.5882833003997803,0.07526534711924063
0.04767621906828137,0.6251838207244873,0.07625952158044064
0.05107445966406338,0.6631870269775391,0.07701365917369367
0.054472126870518355,0.6988744735717773,0.07794264768624982
0.057869457110427173,0.7330865859985352,0.07893945710601613
0.06126702887842204,0.7710392475128174,0.07946032458925324
0.06466503926899092,0.8043088912963867,0.08039826485663198
0.06806373086246888,0.8390614986419678,0.081118882194727
0.07146317538015164,0.8736815452575684,0.08179545026223911
0.07486372414546137,0.9080905914306641,0.0824408102582764
0.07826473095033327,0.9419658184051514,0.0830865933997943
0.08166646621374352,0.9806325435638428,0.08327937589848784
0.08506854822767615,1.0142498016357422,0.08387336935189037
0.08847040618787312,1.0490026473999023,0.08433763862003515
0.09187205496139386,1.0837905406951904,0.0847691980246138
0.09527312320874647,1.1203227043151855,0.08504078587515873
0.09867354514118555,1.1585657596588135,0.08516870477014957
0.10207332128691636,1.192704439163208,0.08558140469279228
0.10547251994700778,1.227430820465088,0.0859295026558344
0.10887124647349415,1.2623884677886963,0.08624226951645242
0.11226957877023191,1.2972736358642578,0.08654271208975638
0.11566801974193318,1.3336920738220215,0.0867276802586508
0.11906685397199321,1.3694469928741455,0.0869452082421241
0.12246577598550933,1.4053244590759277,0.08714412902628678
0.12586541550234145,1.4441282749176025,0.08715667277515424
0.1292654626024183,1.4775402545928955,0.08748693120244946
0.13266592615753375,1.513319969177246,0.08766548308330384
0.13606692215639493,1.5485725402832031,0.08786603056483941
0.13946806118415267,1.5857703685760498,0.087949720809444
0.142869124379794,1.6202034950256348,0.08817974088960567
0.14627021865765844,1.6542630195617676,0.0884201707515695
0.14967103595190842,1.6893870830535889,0.08859487411338324
0.1530714008031209,1.7245736122131348,0.08875898350705094
0.15647136799841843,1.7601988315582275,0.0888941437711904
0.15987097320725485,1.796858549118042,0.08897248661321998
0.16327023420836967,1.8314311504364014,0.08914898830319935
0.16666945452736254,1.8679320812225342,0.08922672092996005
0.17006837053954726,1.9031915664672852,0.08935956502541104
0.173467594263101,1.938504695892334,0.08948525873095718
0.17686673023607016,1.9728751182556152,0.08964922746476367
0.1802665268890772,2.0076420307159424,0.0897901738114103
0.1836662897076983,2.041656494140625,0.08995944726000894
0.18706664225970626,2.075684070587158,0.09012288763520253
0.19046696643234642,2.113729476928711,0.09010943382835279
0.1938676267874697,2.146210193634033,0.09033021432966297
0.19726841787436425,2.1806724071502686,0.09046219745227906
0.20066896301446102,2.215134859085083,0.09058995310892418
0.20406959345420195,2.249187707901001,0.09073035244561463
0.20746977197266192,2.2890069484710693,0.09063745835775654
0.21086975616068593,2.3239243030548096,0.09073865094637404
0.21426951108854506,2.3571033477783203,0.0909037405129071
0.21766935777287963,2.3917577266693115,0.09100811313192633
0.221068434116243,2.4260449409484863,0.09112297566499905
0.224468237755591,2.4591965675354004,0.09127706207745419
0.2278674360082331,2.4945859909057617,0.09134479101499984
0.23126729363157647,2.5296359062194824,0.09142315424246303
0.23466688768606137,2.5639185905456543,0.09152665320630148
0.23806681733395227,2.598369598388672,0.09162161436986668
0.24146707248433116,2.6325602531433105,0.09172328428039449
0.24486727371828593,2.6667401790618896,0.0918226963544779
0.24826783334808658,2.701071262359619,0.09191458100635345
0.2516682414876989,2.73797869682312,0.09191753090690949
0.2550687936031227,2.7714178562164307,0.09203548755052958
0.25846920043870725,2.8057310581207275,0.09212187308210122
0.26186950441200907,2.8399205207824707,0.09221015253619046
0.26526966512224087,2.8739418983459473,0.09230167988953177
0.26866970381983096,2.908064365386963,0.09238781198162384
0.2720695541472897,2.9454903602600098,0.09236816993801776
0.27546928822745065,2.9780566692352295,0.09249967976539267
0.2788689592307457,3.01192307472229,0.09258834050947946
0.2822685551759108,3.0461792945861816,0.09266314549428271
0.28566820620935623,3.0802183151245117,0.09274284384540732
0.28906790183969866,3.114696741104126,0.09280771961678273
0.2924677348950059,3.1492538452148438,0.09286889824375322
0.2958676612203351,3.1865005493164062,0.09285034056680361
0.29926771848103284,3.219379425048828,0.09295820062479708
0.30266790799899573,3.252894401550293,0.09304572194373958
0.3060681492001523,3.287928581237793,0.09308844205032217
0.3094684423666474,3.3221259117126465,0.09315373667071757
0.31286874661696734,3.3591034412384033,0.09314055136736776
0.3162689899795396,3.3942649364471436,0.09317746136534226
0.3196691821992679,3.427239418029785,0.09327308168713695
0.3230692784759339,3.462071418762207,0.09331675733929277
0.32646926857207725,3.4962880611419678,0.09337596412620673
0.32986917239278213,3.531855821609497,0.0933982554934697
0.3332689995162843,3.5686588287353516,0.09338774467112256
0.3366687738766629,3.601850748062134,0.09347105069742195
0.34006854523145313,3.635580062866211,0.09353900597731593
0.3434683273600249,3.6698720455169678,0.09359136315926819
0.3468681648494567,3.705740213394165,0.09360293622195197
0.3502680574126296,3.739623785018921,0.0936639826754277
0.3536680338897968,3.774728536605835,0.09369363398190442
0.3570680803607492,3.8092899322509766,0.09373612581643304
0.3604681884862375,3.8432703018188477,0.09379204692307072
0.36386834885913644,3.8771653175354004,0.09384906731045371
0.36726852446287855,3.912181854248047,0.09387818310748505
0.3706686971996321,3.9461495876312256,0.0939317400337414
0.3740688355292234,3.98058819770813,0.09397325645104355
0.3774689397548675,4.017462968826294,0.09395704271174538
0.3808690032818339,4.050673246383667,0.09402609890142671
0.3842689883394945,4.085203170776367,0.09406361746910781
0.38766891774586953,4.119016885757446,0.09411685567163706
0.39106878960727837,4.153381824493408,0.09415671521001501
0.3944686543887207,4.187834739685059,0.09419394004510939
0.39786850002757274,4.223868131637573,0.09419529389363797
0.4012683579171843,4.258420705795288,0.09422938352969631
0.40466826212185936,4.2922773361206055,0.09427821886448785
0.40806819546880346,4.326745510101318,0.09431296444778603
0.4114681710568354,4.360661745071411,0.09435911224297383
0.41486821022605036,4.395032644271851,0.09439479608115263
0.41826828122560095,4.429483652114868,0.0944282255169624
0.42166837574433036,4.465581178665161,0.09442631515890934
0.4250685043670724,4.502081632614136,0.09441599221297464
0.428468623205624,4.535781383514404,0.09446412579824094
0.4318687311235359,4.569359540939331,0.09451406203740227
0.4352688052957586,4.603859901428223,0.0945443203344933
0.4386688237637914,4.641290664672852,0.09451440460359783
0.44206879133823856,4.674325227737427,0.09457381970664004
0.44546872505561236,4.708269119262695,0.09461411694439671
0.44886862084777823,4.74256706237793,0.09464676301756182
0.45226852458389993,4.776948928833008,0.09467727859807527
0.4556684226273379,4.811302423477173,0.0947079153461366
0.459068345041313,4.848078727722168,0.09469077769225968
0.46246828946244833,4.882012844085693,0.0947290194090138
0.4658682747681648,4.915928840637207,0.09476709079209912
0.4692682873817771,4.949958562850952,0.09480246782338715
0.47266832634490824,4.984593152999878,0.09482585876852201
0.4760684065853646,5.019100904464722,0.09485133207062639
0.4794684842855116,5.05382227897644,0.09487244659949126
0.48286857534229016,5.090184211730957,0.09486269165454955
0.48626865303546857,5.123419523239136,0.09491095758015129
0.48966869990572465,5.157708644866943,0.09493919366559274
0.49306872080115516,5.192288160324097,0.09496174048444538
0.49646871292215466,5.226573705673218,0.09498932587198752
0.49986869177868054,5.261127948760986,0.09501169647402347
0.5032686301394877,5.298504590988159,0.09498314505482561
0.5066685767856497,5.331076622009277,0.09504057298555331
0.5100685091192774,5.365150213241577,0.09507068559989086
0.5134684421527549,5.399544954299927,0.09509476196579388
0.5168683833773747,5.433469772338867,0.0951267615417111
0.5202683588889256,5.468061685562134,0.09514676110231929
0.5236683690451784,5.50488018989563,0.09512802295068787
0.5270683867946978,5.539158821105957,0.09515314577845278
0.5304684172508788,5.573634624481201,0.09517459485429676
0.5338684550566768,5.607662916183472,0.09520337849052153
0.5372684854941071,5.641817092895508,0.09522968870626197
0.5406685108787633,5.676131963729858,0.09525298466166794
0.544068527128661,5.713598966598511,0.0952234362805765
0.5474685271834697,5.74625039100647,0.09527404654003935
0.5508685266645728,5.780009508132935,0.09530581669276786
0.5542685269586324,5.8144049644470215,0.09532678414176231
0.5576685127960342,5.8486692905426025,0.09534964025026918
0.5610684860247648,5.883203744888306,0.0953678489398325
0.5644684678705407,5.917595148086548,0.09538815240732738
0.5678684307406726,5.954558610916138,0.09536700666605805
0.5712683956440177,5.988230228424072,0.09539853576978433
0.5746683708635562,6.023931503295898,0.0953975606377887
0.5780683657714899,6.057530403137207,0.09542970935351924
0.581468363119382,6.092178106307983,0.0954450695585075
0.584868385761044,6.1300129890441895,0.09541062748257545
0.5882684088708555,6.162439346313477,0.09546031625005319
0.5916684364204603,6.197589874267578,0.09546750404977108
0.5950684501552015,6.231200695037842,0.09549819999042539
0.5984684552266148,6.265644788742065,0.0955158607621559
0.6018684557260991,6.299931049346924,0.09553572110737486
0.6052684497897348,6.335541009902954,0.0955354008195436
0.6086684336313307,6.3705244064331055,0.0955444787271646
0.612068407255971,6.404555797576904,0.09556765942886165
0.6154683700783377,6.439127206802368,0.0955825766927154
0.6188683587225401,6.473097324371338,0.09560621874052297
0.6222683464599116,6.507477283477783,0.09562359104039062
0.6256683472320361,6.544910907745361,0.09559615952779577
0.6290683691208964,6.579076766967773,0.09561651146545708
0.6324683900742893,6.613422870635986,0.09563404646064427
0.6358684102919013,6.647216081619263,0.09565935611002489
0.63926842012039,6.6816794872283936,0.09567481070325373
0.6426684195847023,6.7155537605285645,0.09569849970706205
0.6460684082579254,6.753911018371582,0.09565841280711711
0.6494683883673679,6.786568641662598,0.09569908191605041
0.652868364001959,6.8210129737854,0.09571428268954635
0.6562683466267889,6.855669975280762,0.09572636211968658
0.6596683372560773,6.889671564102173,0.09574742875889788
0.6630683354750561,6.925465822219849,0.09574349978706848
0.666468358922846,6.961667776107788,0.09573400805050525
0.6698683712255085,6.995288848876953,0.0957599301039658
0.6732683828185468,7.029659271240234,0.09577539349211771
0.6766683853835842,7.064080715179443,0.09579001326096757
0.6800683776423208,7.098067998886108,0.09581034976687221
0.6834683593984919,7.132486581802368,0.09582469613644623
0.6868683307533873,7.169511079788208,0.09580406852145876
0.69026832896538,7.2024126052856445,0.09583848729505053
0.6936683276805298,7.236923456192017,0.09585127324885785
0.6970683339206108,7.27126669883728,0.09586614860820279
0.7004683491994016,7.305279731750488,0.09588521930994635
0.703868352253307,7.339680194854736,0.09589904921834781
0.7072683450160866,7.373972177505493,0.09591415969450337
0.7106683272786882,7.4113218784332275,0.09588955100529588
0.7140683185759917,7.444758176803589,0.0959155826982922
0.7174683175015474,7.478234052658081,0.0959408748709234
0.7208683298130298,7.512725830078125,0.09595296648880018
0.7242683335653095,7.546842813491821,0.09596971229750582
0.727668349218084,7.585227012634277,0.095932310002858
0.7310683526077968,7.620304346084595,0.09593689692767043
0.7344683456814035,7.654135465621948,0.09595706124881384
0.7378683282356542,7.687756299972534,0.09597967201929779
0.7412683003756532,7.722018003463745,0.0959941170874186
0.7446682993192254,7.757079124450684,0.0959985437008107
0.7480682987528816,7.7946226596832275,0.09597235573983295
0.751468305396691,7.827307939529419,0.09600597181077171
0.7548683156331893,7.861781597137451,0.09601746198444944
0.7582683193278944,7.895533084869385,0.09603763434048587
0.7616683127145628,7.929863691329956,0.09605061856830224
0.7650682955809108,7.964226961135864,0.09606309555394642
0.7684682874582723,8.002231359481812,0.09603175076258166
0.7718682807977221,8.035086154937744,0.09606222832139658
0.775268293857094,8.0694899559021,0.09607401435453247
0.7786682981755835,8.10490369796753,0.09607372612839934
0.7820683144012384,8.13819432258606,0.09609850581114189
0.7854683183760627,8.173031091690063,0.09610489787255162
0.7888683120541755,8.2102632522583,0.09608319341492379
0.792268295227486,8.24437165260315,0.09609808104385109
0.7956682679962165,8.278153657913208,0.09611663432166731
0.7990682676157327,8.312318325042725,0.0961306143929017
0.8024682677352966,8.346981048583984,0.09613874322518445
0.8058682751142102,8.3833749294281,0.09612695148410655
0.8092682860955238,8.417377710342407,0.09614256529099059
0.8126682905679528,8.45247197151184,0.0961456356562867
0.8160682847528713,8.485820293426514,0.09616846180268905
0.8194682684308169,8.520451068878174,0.09617662982937714
0.8228682494919168,8.553993463516235,0.09619696963781238
0.826268249311029,8.588344097137451,0.09620809785514177
0.8296682631984142,8.624838829040527,0.0961952193709237
0.8330682683494643,8.66059923171997,0.09619060368228347
0.8364682853921326,8.693965673446655,0.09621251300162095
0.8398682901617314,8.727681398391724,0.09623040207637465
0.8432682846045939,8.762432336807251,0.09623678131725852
0.846668268519947,8.796758890151978,0.0962477520519287
0.8500682420125647,8.833700895309448,0.09623013639322305
0.8534682304117861,8.86659574508667,0.09625658538506467
0.856868219467929,8.901842594146729,0.09625739956706825
0.8602682331368169,8.936617136001587,0.0962632974026811
0.8636682447535968,8.970952272415161,0.09627386463857308
0.867068266199217,9.007094383239746,0.09626503612670512
0.870468274648646,9.042431354522705,0.09626484741996615
0.8738682784922746,9.075713157653809,0.09628645851982623
0.8772682758700743,9.11083984375,0.09628840929213313
0.880668262996807,9.144625663757324,0.0963044629029637
0.8840682398862724,9.17910885810852,0.0963130793579505
0.8874682059500548,9.216709613800049,0.09628904925259457
0.8908681978253525,9.250986576080322,0.09629980440451755
0.8942681887856074,9.284409523010254,0.09631933905643379
0.8976681927882835,9.318800926208496,0.09632872296516738
0.9010682179155242,9.353060960769653,0.09633939324195062
0.9044682315518568,9.386826515197754,0.09635505994357906
0.9078682596544163,9.422075748443604,0.09635544055187452
0.9112682728026532,9.457329034805298,0.09635577544663633
0.9146682756127416,9.490797281265259,0.09637422953056723
0.9180682676324682,9.524468898773193,0.09639049456612964
0.9214682511043591,9.558043718338013,0.09640762045652031
0.9248682301142287,9.592682838439941,0.09641392775002244
0.9282682027767446,9.626726865768433,0.09642614937768337
0.9316681725607888,9.660573959350586,0.09644025049453878
0.9350681622790759,9.697609424591064,0.09642254305560533
0.9384681525021774,9.731900453567505,0.09643215700569104
0.9418681673376876,9.765559196472168,0.09644795022879384
0.9452681901739547,9.801446914672852,0.09644169870051328
0.9486682087041939,9.835313558578491,0.09645530903046327
0.9520682182485162,9.873117685317993,0.09643035245739118
0.9554682231766208,9.907333850860596,0.09644049928665971
0.9588682216186207,9.941539764404297,0.09645067508072043
0.9622682097878503,9.976054430007935,0.09645779466613084
0.9656681876957702,10.011712074279785,0.09645385130247443
0.9690681597220493,10.0494863986969,0.09642962050754224
0.972468156728749,10.082357406616211,0.09645245824062924
0.9758681617494872,10.117116451263428,0.09645714433064775
0.979268170066119,10.151541471481323,0.09646497261693432
0.9826681942933384,10.186293125152588,0.0964696560583827
0.9860682055600218,10.225796222686768,0.09642947933700739
0.9894682061373672,10.257833242416382,0.09645976716075798
0.992868200994559,10.292418956756592,0.09646597220401505
0.9962681909697562,10.327098608016968,0.0964712576866797
0.9996681720023403,10.360846996307373,0.09648517851471256
1.003068147141349,10.394906044006348,0.09649612443776855
1.0064681344903872,10.434376001358032,0.09645695481544805
1.009868125370285,10.466653823852539,0.0964843341879607
1.0132681426774772,10.500813961029053,0.09649424763051222
1.0166681517049603,10.53522777557373,0.09650177227891917
1.0200681720527693,10.569417476654053,0.09651129537705526
1.0234681763437254,10.604039192199707,0.09651682324001451
1.0268681698616224,10.64129090309143,0.0964984586187099
1.0302681548100034,10.675841093063354,0.096504635637507
1.0336681352776769,10.709633827209473,0.09651759826292883
1.0370681227228975,10.743445873260498,0.0965303064730907
1.0404681181709543,10.777904510498047,0.09653714385365939
1.0438681211851595,10.811996221542358,0.09654721475996308
1.0472681375479975,10.84920334815979,0.09652949658516928
1.0506681423787483,10.883139848709106,0.09654090244033502
1.054068136298108,10.917226791381836,0.09655090587017937
1.057468121620311,10.951967239379883,0.09655508444345808
1.0608681138858385,10.986240863800049,0.09656334018503332
1.06426810539972,11.02084994316101,0.0965686050430395
1.0676681186014694,11.058225870132446,0.09654967543077339
1.0710681191538733,11.0920889377594,0.09656144349039351
1.0744681418455597,11.125919818878174,0.09657342128445236
1.0778681467067506,11.1603102684021,0.09658048215366297
1.0812681407874267,11.194413900375366,0.0965899733929947
1.0846681262818525,11.228554010391235,0.09659909239231236
1.088068107287983,11.265332460403442,0.09658553008643442
1.0914680905583982,11.298607110977173,0.0966020041088057
1.0948680736488319,11.333544969558716,0.09660420253235752
1.098268076733066,11.36785340309143,0.096611738187475
1.1016680938886094,11.403449058532715,0.09660832334444272
1.1050681023189706,11.438687324523926,0.09660794730788422
1.1084681226406454,11.474642753601074,0.09660153666159028
1.1118681307028746,11.507433891296387,0.09662172654703086
1.1152681284539716,11.54216480255127,0.09662555920250365
1.1186681156859704,11.576577425003052,0.09663202470100316
1.1220680924995299,11.610883474349976,0.09663933799510875
1.1254680637386845,11.645489931106567,0.09664411462264183
1.1288680552430546,11.682332754135132,0.09663036304487006
1.1322680548465258,11.716034650802612,0.0966426003843339
1.1356680551091531,11.75048303604126,0.0966486272628806
1.1390680798778874,11.784533739089966,0.09665788270430539
1.1424680919530337,11.819616317749023,0.09665864451432633
1.1458680993547143,11.856929540634155,0.09664121688737208
1.1492681002762524,11.890549182891846,0.0966539124979881
1.152668090916337,11.923714876174927,0.09667021585860895
1.1560680712814444,11.958040475845337,0.09667704952300889
1.1594680457637183,11.993024110794067,0.09667853871153012
1.162868045196255,12.026074171066284,0.09669556570622331
1.1662680526358513,12.06100082397461,0.09669745236378458
1.1696680556340213,12.097352981567383,0.09668793308885282
